timestamp,open,high,low,close,adjusted close,volume,dividend amount
2019-04-12,108.6500,110.6950,107.5200,110.3100,110.3100,911632,0.0000
2019-04-05,106.9100,108.9600,106.2100,108.7400,108.7400,955298,0.0000
2019-03-29,103.5500,106.6800,103.0226,106.3900,106.3900,1073532,0.0000
2019-03-22,103.2200,105.6800,102.8500,103.8300,103.8300,910190,0.0000
2019-03-15,100.6000,103.5800,100.5700,103.0500,103.0500,1087688,0.0000
2019-03-08,101.2500,102.2700,99.2100,100.4700,100.4700,960334,0.0000
2019-03-01,102.2700,102.6025,100.6850,100.8100,100.8100,1571283,0.0000
2019-02-22,101.8400,104.0000,100.6400,102.0500,102.0500,1472939,0.0000
2019-02-15,101.8800,103.5100,101.2400,101.9400,101.9400,1168611,0.0000
2019-02-08,99.4200,102.3100,98.5200,101.3900,101.3900,1018417,0.0000
2019-02-01,97.3900,99.9800,97.2400,99.5500,99.5500,1288088,0.3400
2019-01-25,97.4200,98.3500,95.1200,97.3900,97.0531,821904,0.0000
2019-01-18,94.2800,97.9700,93.7400,97.6900,97.3520,1114456,0.0000
2019-01-11,90.6000,94.8200,90.5848,94.7300,94.4023,1554846,0.0000
2019-01-04,92.8200,94.0700,88.2600,91.0700,90.7549,1835134,0.0000
2018-12-28,92.8600,93.9100,89.6700,92.7000,92.3793,1467566,0.0000
2018-12-21,99.8400,100.6500,93.5100,93.5500,93.2264,1650230,0.0000
2018-12-14,99.4300,101.2700,98.2200,100.3400,99.9929,949465,0.0000
2018-12-07,105.2300,105.5080,98.3500,99.7700,99.4248,1094136,0.0000
2018-11-30,104.7200,104.9900,101.6800,104.0500,103.6900,1341782,0.0000
2018-11-23,106.2000,106.6500,102.9800,103.9000,103.5406,736461,0.0000
2018-11-16,104.1600,107.1500,101.2100,106.2800,105.9123,1228030,0.0000
2018-11-09,103.9900,105.8000,101.2500,104.2900,103.9292,1798881,0.0000
2018-11-02,101.3200,105.3300,95.0600,103.8000,103.4409,2358953,0.3400
2018-10-26,104.6100,104.7350,99.3100,100.3600,99.6785,1900665,0.0000
2018-10-19,101.6700,106.0900,101.0500,104.3200,103.6116,1363713,0.0000
2018-10-12,107.1200,107.8500,100.3400,101.6500,100.9597,1610183,0.0000
2018-10-05,108.0500,109.2000,106.3000,107.1700,106.4422,1274530,0.0000
2018-09-28,110.2000,111.4700,107.5500,107.7400,107.0084,1933218,0.0000
2018-09-21,112.3000,112.3100,109.6710,110.3200,109.5708,1649139,0.0000
2018-09-14,108.3900,112.1600,107.5400,111.9700,111.2096,1166870,0.0000
2018-09-07,105.3200,109.6900,104.5800,107.9000,107.1673,1144622,0.0000
2018-08-31,103.7900,105.7700,103.7700,104.7100,103.9989,975283,0.0000
2018-08-24,102.9200,104.1400,102.6000,103.8000,103.0951,763352,0.0000
2018-08-17,102.2400,103.4740,100.0600,102.7600,102.0622,1113122,0.0000
2018-08-10,104.0100,104.9500,102.1600,102.3800,101.6848,1445491,0.0000
2018-08-03,103.5200,104.5000,99.9400,104.1000,103.3931,2049166,0.3400
2018-07-27,95.9400,103.0300,94.0500,102.9000,101.8631,1411688,0.0000
2018-07-20,94.7700,96.5400,93.1600,95.7800,94.8149,844125,0.0000
2018-07-13,94.4500,96.8300,94.4500,94.8700,93.9140,1027697,0.0000
2018-07-06,92.9100,95.0300,92.4600,94.0800,93.1320,903693,0.0000
2018-06-29,92.7700,94.1200,91.4200,93.3800,92.4390,1499106,0.0000
2018-06-22,94.5700,95.0800,92.3400,92.6300,91.6966,2013743,0.0000
2018-06-15,93.7900,95.3700,93.4275,94.9200,93.9635,1991472,0.0000
2018-06-08,93.1100,94.5000,92.0401,93.6600,92.7162,1548907,0.0000
2018-06-01,93.4600,94.4100,92.1900,92.7700,91.8352,797940,0.0000
2018-05-25,94.0200,94.9500,93.3600,94.0800,93.1320,764931,0.0000
2018-05-18,94.1900,94.7100,91.5900,93.5600,92.6172,1656561,0.0000
2018-05-11,92.3700,94.3200,91.3700,94.2900,93.3399,1626151,0.3200
2018-05-04,93.7300,94.0000,90.8400,92.2600,91.0129,2866657,0.0000
2018-04-27,94.7100,95.4300,91.8800,93.4600,92.1967,1714592,0.0000
2018-04-20,93.0300,96.3900,92.9600,94.4400,93.1635,1433898,0.0000
2018-04-13,89.1500,93.3300,88.5950,92.7500,91.4963,1663662,0.0000
2018-04-06,89.3700,90.8500,86.8500,88.5000,87.3038,1436217,0.0000
2018-03-29,87.6600,90.3400,87.0700,89.8300,88.6158,1013496,0.0000
2018-03-23,90.0600,90.4900,86.6900,86.7700,85.5971,1133567,0.0000
2018-03-16,90.7000,92.1000,89.4300,90.1500,88.9315,1357729,0.0000
2018-03-09,89.3100,91.1400,89.2800,90.8700,89.6417,1376870,0.0000
2018-03-02,91.2800,91.4800,88.3000,89.6800,88.4678,1354312,0.0000
2018-02-23,91.2400,92.2800,89.9300,90.9900,89.7601,1159358,0.0000
2018-02-16,82.5600,92.3200,81.5900,91.8300,90.5887,2570511,0.0000
2018-02-09,85.1000,86.0000,79.9700,82.1600,81.0495,1725886,0.0000
2018-02-02,88.7300,89.2300,85.5400,85.8000,84.6403,1534911,0.3200
2018-01-26,88.6100,89.5000,86.3501,89.1400,87.6154,1327758,0.0000
2018-01-19,86.3600,88.7000,86.0100,88.6100,87.0944,902683,0.0000
2018-01-12,86.8600,87.7600,85.1600,86.5600,85.0795,1275574,0.0000
2018-01-05,86.4400,87.9300,85.8000,86.9100,85.4235,983010,0.0000
2017-12-29,85.7900,87.0000,85.0600,86.2800,84.8043,600953,0.0000
2017-12-22,87.6500,87.8900,85.4300,85.9000,84.4308,1236394,0.0000
2017-12-15,87.8700,87.8700,85.7000,86.9800,85.4923,1837580,0.0000
2017-12-08,87.7900,89.1600,87.3200,87.9000,86.3966,1307661,0.0000
2017-12-01,86.3700,88.9900,86.3700,87.6000,86.1017,1196163,0.0000
2017-11-24,85.6100,86.8200,85.1000,86.2500,84.7748,712904,0.0000
2017-11-17,84.6200,86.5000,84.6200,85.6500,84.1851,929523,0.0000
2017-11-10,87.0200,87.0800,84.2200,84.9100,83.4577,1212294,0.0000
2017-11-03,87.4600,88.1200,86.1200,86.9400,85.4530,1489571,0.3200
2017-10-27,89.1600,89.6750,85.8900,87.9300,86.1096,1283556,0.0000
2017-10-20,88.9200,89.3700,87.9700,89.2000,87.3533,895223,0.0000
2017-10-13,88.6800,89.3700,88.1900,88.8400,87.0008,842682,0.0000
2017-10-06,86.8100,88.8500,86.5400,88.5800,86.7461,1037440,0.0000
2017-09-29,85.7500,87.5100,85.3500,86.3100,84.5231,1142215,0.0000
2017-09-22,84.9700,86.7600,84.7400,85.7200,83.9454,1015193,0.0000
2017-09-15,84.3200,85.4400,84.0000,84.7100,82.9563,1215144,0.0000
2017-09-08,83.7200,84.1800,82.3201,83.8200,82.0847,881274,0.0000
2017-09-01,82.6500,84.0000,81.4900,83.8800,82.1434,1125252,0.0000
2017-08-25,82.0600,82.7300,80.9500,82.3900,80.6843,1007027,0.0000
2017-08-18,82.6300,83.8300,81.6410,82.1500,80.4493,981521,0.0000
2017-08-11,82.5500,82.9499,81.4050,82.1400,80.4395,1003029,0.0000
2017-08-04,82.2400,83.5000,80.6900,82.3600,80.6549,2264906,0.0000
2017-07-28,88.9400,89.9600,80.8300,82.3100,80.6060,2530180,0.3200
2017-07-21,89.5000,90.7900,89.0000,89.5100,87.3445,1542738,0.0000
2017-07-14,87.9500,89.9700,87.4800,89.4300,87.2664,1153562,0.0000
2017-07-07,87.2100,88.5500,86.4400,88.0900,85.9588,1000586,0.0000
2017-06-30,86.9700,87.5900,85.7750,86.8600,84.7586,1091984,0.0000
2017-06-23,86.3200,87.9350,85.9300,86.8000,84.7000,1224756,0.0000
2017-06-16,85.2400,86.7700,84.8700,85.9500,83.8706,1279918,0.0000
2017-06-09,86.1000,87.0900,84.8600,85.6500,83.5778,1321571,0.0000
2017-06-02,84.1300,86.7300,83.8000,86.3300,84.2414,943184,0.0000
2017-05-26,82.2500,84.6299,82.0500,84.3700,82.3288,991396,0.0000
2017-05-19,82.4300,82.9800,81.1200,82.3600,80.3674,1344399,0.0000
2017-05-12,82.0800,83.0400,81.7200,82.4300,80.4357,1522692,0.0000
2017-05-05,80.0800,82.1700,78.8900,81.9100,79.9283,2711278,0.3200
2017-04-28,78.9700,80.5300,77.6200,80.3000,78.0440,1725103,0.0000
2017-04-21,76.0300,78.6400,75.8800,77.9900,75.7989,1222053,0.0000
2017-04-13,75.9400,76.9700,75.7575,75.8000,73.6705,907835,0.0000
2017-04-07,76.9400,77.4600,75.4900,76.1600,74.0204,1625028,0.0000
2017-03-31,75.8100,77.3800,75.8100,76.9900,74.8270,962365,0.0000
2017-03-24,77.1700,77.8700,76.3200,76.6200,74.4674,990517,0.0000
2017-03-17,76.8000,77.6900,75.3500,77.0800,74.9145,1306384,0.0000
2017-03-10,75.4700,77.0000,75.1800,76.7900,74.6327,1967263,0.0000
2017-03-03,74.1000,76.2400,73.9500,76.0400,73.9037,1639171,0.0000
2017-02-24,73.9100,74.8100,73.6400,74.3600,72.2709,876290,0.0000
2017-02-17,75.2200,75.4400,72.8600,73.9000,71.8238,1980437,0.0000
2017-02-10,73.5300,76.2000,72.4400,74.7900,72.6888,2610829,0.0000
2017-02-03,73.0700,74.1300,72.1000,73.7800,71.7072,2062882,0.3200
2017-01-27,71.8800,73.9400,71.4400,73.4400,71.0641,1514942,0.0000
2017-01-20,72.8800,73.8300,71.5500,71.6400,69.3224,1253187,0.0000
2017-01-13,73.5000,74.4100,72.3600,73.5000,71.1222,1101972,0.0000
2017-01-06,74.2600,74.7200,72.3500,73.5000,71.1222,1395710,0.0000
2016-12-30,73.8100,74.6900,73.2501,73.4500,71.0738,772833,0.0000
2016-12-23,73.1900,74.1600,72.5800,73.6100,71.2286,1284290,0.0000
2016-12-16,74.8500,75.6000,72.7300,72.9300,70.5706,1903584,0.0000
2016-12-09,74.8400,75.1800,71.8400,74.7500,72.3318,2085892,0.0000
2016-12-02,76.1000,77.2800,72.4600,74.3500,71.9447,1852878,0.0000
2016-11-25,73.7000,76.6600,73.3400,76.0700,73.6091,952902,0.0000
2016-11-18,72.2900,74.2600,72.2900,73.6500,71.2673,1141160,0.0000
2016-11-11,72.5700,76.0700,70.7500,71.8500,69.5256,2231973,0.0000
2016-11-04,72.9300,73.8900,70.3200,71.4100,69.0998,1711736,0.3200
2016-10-28,78.1000,78.1000,72.5800,73.0200,70.3426,1156523,0.0000
2016-10-21,76.0200,77.4100,75.3900,77.1600,74.3308,696397,0.0000
2016-10-14,76.0400,76.5200,74.5500,76.0300,73.2423,798260,0.0000
2016-10-07,77.0700,77.6760,75.1900,75.6400,72.8666,1166891,0.0000
2016-09-30,78.6900,78.9700,76.9700,77.4100,74.5717,1715146,0.0000
2016-09-23,77.9000,79.5100,77.8400,78.7900,75.9011,1365774,0.0000
2016-09-16,77.0000,78.5600,77.0000,77.6000,74.7547,1052090,0.0000
2016-09-09,79.4400,80.5500,77.4300,77.4600,74.6198,1162422,0.0000
2016-09-02,78.5000,79.1800,77.4900,79.1600,76.2575,1104811,0.0000
2016-08-26,76.7700,79.0700,76.4000,78.4700,75.5928,1238561,0.0000
2016-08-19,75.8700,76.9900,75.0100,76.7800,73.9648,898920,0.0000
2016-08-12,76.7100,77.5900,75.3500,75.5800,72.8088,763565,0.0000
2016-08-05,78.1400,78.1400,75.9400,76.5900,73.7817,1313327,0.0000
2016-07-29,80.0400,81.5000,77.1050,78.1800,75.3134,1711047,0.3000
2016-07-22,79.9200,80.7900,79.2200,80.4700,77.2297,645134,0.0000
2016-07-15,80.0800,81.1700,79.8600,79.9200,76.7018,774948,0.0000
2016-07-08,78.8500,79.8500,77.8000,79.7900,76.5771,687215,0.0000
2016-07-01,75.9300,79.7300,74.2700,79.1700,75.9820,1308089,0.0000
2016-06-24,77.1800,80.1400,76.5400,76.7500,73.6595,1347691,0.0000
2016-06-17,77.7500,78.0800,75.6600,76.3500,73.2756,1357788,0.0000
2016-06-10,77.3100,78.5500,76.7900,78.2000,75.0511,881369,0.0000
2016-06-03,77.2200,77.7900,76.0700,77.2000,74.0914,830014,0.0000
2016-05-27,75.4900,77.1900,74.7300,77.1400,74.0338,1038558,0.0000
2016-05-20,77.0800,77.7900,74.1600,75.3300,72.2967,1509600,0.0000
2016-05-13,76.1700,77.9800,75.6550,76.9700,73.8706,1237221,0.0000
2016-05-06,75.7800,77.3300,75.0100,76.2800,73.2084,2418893,0.0000
2016-04-29,78.9400,80.3600,75.7100,76.0000,72.9397,2157862,0.3000
2016-04-22,79.0000,80.3200,78.4300,79.6900,76.1918,1172021,0.0000
2016-04-15,77.9700,79.3000,76.8700,79.2500,75.7712,1004107,0.0000
2016-04-08,79.2300,79.6700,76.6600,77.3600,73.9641,1043658,0.0000
2016-04-01,77.6800,79.1600,77.3800,79.0900,75.6182,1806288,0.0000
2016-03-24,76.9900,78.8900,76.6350,77.3900,73.9928,914381,0.0000
2016-03-18,75.7800,77.7600,74.0360,76.8900,73.5147,1756191,0.0000
2016-03-11,75.8700,76.8100,75.0900,75.7800,72.4535,1272133,0.0000
2016-03-04,73.5000,76.1000,72.9800,76.0000,72.6638,1255062,0.0000
2016-02-26,73.4700,74.9500,72.0500,73.3300,70.1110,1240683,0.0000
2016-02-19,76.0500,76.1950,71.5600,72.8800,69.6808,1722064,0.0000
2016-02-12,70.5600,75.6500,69.8800,75.3000,71.9945,2299654,0.0000
2016-02-05,72.2900,74.6600,70.4800,71.1200,67.9980,1691049,0.0000
2016-01-29,67.6700,72.9100,66.6400,72.9000,69.6999,2620715,0.3000
2016-01-22,68.8500,68.8500,66.3300,68.2500,64.9625,1050579,0.0000
2016-01-15,69.9300,70.9200,67.0000,68.0700,64.7912,1762399,0.0000
2016-01-08,72.0000,72.2100,69.6000,69.8800,66.5140,1888504,0.0000
2015-12-31,72.9800,74.4700,72.6200,72.6500,69.1506,476909,0.0000
2015-12-24,71.4800,73.6400,71.2100,73.3000,69.7693,641993,0.0000
2015-12-18,72.7700,73.9500,71.0900,71.1100,67.6848,1582291,0.0000
2015-12-11,74.0300,74.6000,72.2400,72.8600,69.3505,1049150,0.0000
2015-12-04,75.1700,75.4900,72.9200,74.3500,70.7687,833037,0.0000
2015-11-27,74.2400,75.5600,73.1400,75.0100,71.3969,795547,0.0000
2015-11-20,71.8700,74.5500,71.1500,74.2900,70.7116,846598,0.0000
2015-11-13,73.0500,73.6200,70.5700,71.5200,68.0750,1554671,0.0000
2015-11-06,74.7700,75.9600,72.6800,73.2600,69.7312,1663009,0.3000
2015-10-30,71.3000,75.2500,69.6300,73.5600,69.7405,2186954,0.0000
2015-10-23,69.6100,72.1700,69.5400,71.4000,67.6926,1127324,0.0000
2015-10-16,70.3100,70.8800,68.9500,69.8400,66.2136,1073701,0.0000
2015-10-09,68.4300,70.7000,67.6100,70.2600,66.6118,1237865,0.0000
2015-10-02,65.1400,68.0000,63.6200,67.9800,64.4502,1761332,0.0000
2015-09-25,67.4800,68.3400,64.8400,65.5300,62.1274,1411755,0.0000
2015-09-18,67.2800,69.3800,66.7100,67.1500,63.6633,1539849,0.0000
2015-09-11,67.7500,68.6200,66.0800,67.4000,63.9003,1435619,0.0000
2015-09-04,67.3900,67.7900,65.5000,67.2700,63.7771,1251854,0.0000
2015-08-28,64.8000,68.0899,64.6600,67.7100,64.1942,1601725,0.0000
2015-08-21,69.6200,70.3400,67.0400,67.6100,64.0994,1196856,0.0000
2015-08-14,69.0100,70.1000,67.9300,69.8700,66.2421,1198505,0.0000
2015-08-07,67.7800,69.3400,66.5400,68.7900,65.2181,1413575,0.0000
2015-07-31,61.2200,68.7100,60.7300,67.7900,64.2701,3162166,0.2800
2015-07-24,63.8200,64.0900,61.5000,61.7500,58.2778,1191352,0.0000
2015-07-17,63.7800,64.5500,63.6300,63.9300,60.3352,1192571,0.0000
2015-07-10,63.4500,64.4500,63.1700,63.6800,60.0993,1377460,0.0000
2015-07-02,64.1500,64.5600,63.5600,63.7900,60.2031,1373605,0.0000
2015-06-26,65.6400,65.6400,64.0300,64.4800,60.8543,1432851,0.0000
2015-06-19,64.0600,65.8300,63.6200,65.2900,61.6188,1887804,0.0000
2015-06-12,64.2400,64.8200,63.5600,64.5800,60.9487,1437946,0.0000
2015-06-05,64.0200,64.6300,63.3100,64.2800,60.6656,2157903,0.0000
2015-05-29,64.4800,64.8500,63.6500,63.7700,60.1842,1046849,0.0000
2015-05-22,65.1200,66.3100,64.3300,64.5000,60.8732,1444781,0.0000
2015-05-15,62.9700,65.4200,62.3800,65.2000,61.5338,2465493,0.0000
2015-05-08,64.3400,64.9800,62.6050,63.1600,59.6085,3444881,0.0000
2015-05-01,63.3800,64.9300,62.0000,64.0500,60.4485,2775440,0.2800
2015-04-24,63.0700,63.4700,62.4400,63.2900,59.4661,1277975,0.0000
2015-04-17,63.0500,63.7300,61.9800,62.8400,59.0432,1603079,0.0000
2015-04-10,62.9200,63.5700,62.7600,63.4900,59.6540,1242450,0.0000
2015-04-02,63.4100,63.9800,62.8200,63.1500,59.3345,1363213,0.0000
2015-03-27,63.3500,63.9100,62.7100,63.1800,59.3627,1571349,0.0000
2015-03-20,63.4300,64.5400,62.5700,63.2300,59.4097,1894190,0.0000
2015-03-13,64.1300,64.7000,62.7100,63.1000,59.2875,1615034,0.0000
2015-03-06,66.0400,66.5600,63.9200,64.2700,60.3868,1193632,0.0000
2015-02-27,65.9200,66.4000,65.4500,65.8700,61.8902,1155246,0.0000
2015-02-20,64.1300,66.2700,64.1300,66.1700,62.1721,1121034,0.0000
2015-02-13,64.0400,64.7400,63.1800,64.5600,60.6593,2187769,0.0000
2015-02-06,63.2300,66.6000,62.7135,64.3300,60.4432,2585905,0.0000
2015-01-30,63.5800,64.0100,61.3900,63.1100,59.2969,1801539,0.2800
2015-01-23,64.3000,65.0700,63.6500,63.7600,59.6458,1010066,0.0000
2015-01-16,65.4900,66.5300,63.3700,64.4700,60.3100,1169666,0.0000
2015-01-09,66.2000,66.7000,63.4800,65.4700,61.2454,1672015,0.0000
2015-01-02,67.5900,68.6700,65.9101,66.6500,62.3493,679413,0.0000
2014-12-26,67.4100,68.1700,66.8300,67.8600,63.4812,627108,0.0000
2014-12-19,64.8600,67.2700,63.4000,67.1300,62.7983,1507028,0.0000
2014-12-12,66.1900,66.5800,64.5900,64.6400,60.4690,861637,0.0000
2014-12-05,64.8200,66.9000,64.5300,66.2600,61.9845,1125669,0.0000
2014-11-28,65.2100,65.6022,64.9140,65.2500,61.0396,576954,0.0000
2014-11-21,64.9600,65.8100,64.3600,65.1000,60.8993,1266193,0.0000
2014-11-14,64.8400,65.8700,64.6000,64.8300,60.6467,1209154,0.0000
2014-11-07,61.7300,64.8500,61.3400,64.7700,60.5906,1964904,0.2800
2014-10-31,61.3700,62.6900,58.3600,62.2400,57.9609,2275754,0.0000
2014-10-24,58.7100,62.3700,58.4600,61.9200,57.6629,1717009,0.0000
2014-10-17,57.4100,59.0700,55.5900,58.7000,54.6643,3507336,0.0000
2014-10-10,60.2500,60.6500,57.4400,57.5000,53.5468,1610650,0.0000
2014-10-03,60.8600,61.8400,58.9100,60.1100,55.9774,1657569,0.0000
2014-09-26,61.1000,61.4970,60.5700,61.3800,57.1601,1563148,0.0000
2014-09-19,62.8800,63.0400,61.1400,61.1600,56.9552,1683200,0.0000
2014-09-12,65.0100,65.3700,62.4800,62.7000,58.3893,977800,0.0000
2014-09-05,64.3800,65.2000,63.9150,65.2000,60.7174,811300,0.0000
2014-08-29,64.0100,64.2300,63.3800,64.1500,59.7396,615800,0.0000
2014-08-22,63.6000,64.3900,63.3400,63.6200,59.2461,979600,0.0000
2014-08-15,62.6800,63.6980,61.7680,63.3000,58.9481,1023800,0.0000
2014-08-08,61.3000,62.4200,60.5200,62.3600,58.0727,1324600,0.0000
2014-08-01,63.1100,63.2400,60.5700,61.1300,56.9273,1696600,0.2800
2014-07-25,65.6800,65.6800,63.2400,63.5000,58.8723,1677800,0.0000
2014-07-18,66.7500,67.0700,64.9500,66.0500,61.2365,1003685,0.0000
2014-07-11,66.7500,66.9200,65.4600,66.3500,61.5146,838100,0.0000
2014-07-03,66.8900,68.0000,66.5500,66.9700,62.0894,673300,0.0000
2014-06-27,66.8100,67.0100,65.7900,67.0100,62.1265,1051800,0.0000
2014-06-20,66.3100,67.1000,65.4100,66.6300,61.7742,933200,0.0000
2014-06-13,67.0300,67.5800,64.9500,66.4100,61.5702,689500,0.0000
2014-06-06,66.7200,67.3000,65.8000,67.1100,62.2192,714100,0.0000
2014-05-30,66.1400,66.6600,65.4400,66.5900,61.7371,703700,0.0000
2014-05-23,66.1500,67.1800,65.3400,65.9900,61.1808,765400,0.0000
2014-05-16,66.9600,67.8400,65.5250,66.1400,61.3199,831000,0.0000
2014-05-09,66.1400,67.2600,65.6350,66.5900,61.7371,1018600,0.0000
2014-05-02,66.9100,67.7200,66.3200,66.6800,61.8205,1211400,0.2800
2014-04-25,66.5200,67.7800,66.2300,67.1400,61.9876,940900,0.0000
2014-04-17,65.1300,66.8900,64.5900,66.5700,61.4613,993300,0.0000
2014-04-11,65.8700,67.3500,64.5400,64.7200,59.7533,909600,0.0000
2014-04-04,64.7000,67.5100,64.4550,66.0400,60.9720,1159200,0.0000
2014-03-28,64.5400,65.2200,63.1101,64.2700,59.3378,702300,0.0000
2014-03-21,64.7200,65.7560,64.4700,64.7500,59.7810,905700,0.0000
2014-03-14,65.7100,65.8600,63.9900,64.5100,59.5594,832400,0.0000
2014-03-07,65.5300,66.3684,65.1000,65.7300,60.6858,952900,0.0000
2014-02-28,64.7000,66.7400,64.2480,66.1700,61.0920,1018700,0.0000
2014-02-21,64.8600,65.4800,64.2600,64.6400,59.6794,823100,0.0000
2014-02-14,63.2000,64.9400,62.8700,64.7700,59.7995,898800,0.0000
2014-02-07,63.8600,64.0000,61.1800,63.4900,58.6177,1806700,0.0000
2014-01-31,64.1600,64.6200,62.8400,63.8000,58.9039,1681400,0.2500
2014-01-24,67.5700,67.7300,64.4400,64.4800,59.2979,1409400,0.0000
2014-01-17,68.1900,68.7800,67.0000,67.2400,61.8361,3814000,0.0000
2014-01-10,67.1300,68.6800,66.2500,68.0500,62.5810,2081300,0.0000
2014-01-03,66.7600,68.0100,66.4900,66.8500,61.4774,836900,0.0000
2013-12-27,65.7000,67.1000,65.2400,66.7200,61.3579,501000,0.0000
2013-12-20,64.0900,65.4600,63.8200,65.3600,60.1072,1108700,0.0000
2013-12-13,64.5700,64.7000,63.1400,63.7000,58.5806,887700,0.0000
2013-12-06,64.9600,65.7280,63.1000,64.6900,59.4910,889400,0.0000
2013-11-29,64.4200,65.2500,63.7200,64.9200,59.7025,1297700,0.0000
2013-11-22,65.0900,65.1000,63.7500,64.2000,59.0404,1686500,0.0000
2013-11-15,64.1900,65.2300,63.9400,64.9400,59.7209,728100,0.0000
2013-11-08,63.9400,64.7700,63.0700,64.2500,59.0864,835800,0.2500
2013-11-01,64.1200,64.7000,62.2100,63.8900,58.5270,1093400,0.0000
2013-10-25,63.1800,64.3600,63.0100,64.2800,58.8842,576500,0.0000
2013-10-18,61.0800,63.2900,60.7900,63.1900,57.8857,644300,0.0000
2013-10-11,59.7700,61.5100,59.1900,61.4500,56.2918,1142500,0.0000
2013-10-04,59.2500,61.6600,59.1500,60.1300,55.0826,1430500,0.0000
2013-09-27,60.1900,60.7500,59.6300,59.6500,54.6429,938900,0.0000
2013-09-20,59.7100,60.5700,59.1700,60.2400,55.1834,1088100,0.0000
2013-09-13,58.7000,59.9400,58.3000,59.0100,54.0566,828200,0.0000
2013-09-06,59.4400,59.7800,57.4000,58.5100,53.5986,785200,0.0000
2013-08-30,59.9000,60.4200,58.4300,58.8100,53.8734,695200,0.0000
2013-08-23,59.2400,60.0400,58.7700,59.8400,54.8169,551100,0.0000
2013-08-16,59.8800,60.5800,59.0300,59.2900,54.3131,476800,0.0000
2013-08-09,60.4300,60.6100,58.9600,60.1200,55.0734,677800,0.0000
2013-08-02,57.6900,60.7400,57.6900,60.4800,55.4032,1801700,0.2500
2013-07-26,59.7100,60.1070,57.5500,57.9400,52.8505,872300,0.0000
2013-07-19,59.6000,59.9300,59.1301,59.5800,54.3465,804400,0.0000
2013-07-12,56.7900,59.6600,56.6000,59.6500,54.4103,744000,0.0000
2013-07-05,55.4900,56.6300,55.3600,56.6200,51.6465,436400,0.0000
2013-06-28,54.4700,55.7300,54.1300,55.2100,50.3603,1122800,0.0000
2013-06-21,57.3200,57.5800,54.5900,55.0300,50.1961,960800,0.0000
2013-06-14,57.1900,57.7600,55.6700,57.0400,52.0296,573300,0.0000
2013-06-07,56.7100,57.3100,55.6700,57.0000,51.9931,826200,0.0000
2013-05-31,56.7300,57.3500,56.0301,56.7200,51.7377,783000,0.0000
2013-05-24,56.9300,57.5200,55.8700,56.2200,51.2816,643100,0.0000
2013-05-17,56.5500,57.1600,55.7400,57.0700,52.0569,961400,0.0000
2013-05-10,56.0500,56.9900,55.7600,56.4900,51.5279,1285400,0.0000
2013-05-03,55.7400,56.4700,55.0200,55.9900,51.0718,1648700,0.0000
2013-04-26,55.2800,56.8400,54.7500,55.3900,50.5245,871200,0.2500
2013-04-19,56.6200,56.6800,54.4050,55.0800,50.0204,894900,0.0000
2013-04-12,56.2500,57.6900,55.8900,56.9000,51.6732,708500,0.0000
2013-04-05,57.4200,57.4200,55.7500,56.0900,50.9376,947900,0.0000
2013-03-28,56.3900,57.4700,55.6300,57.3500,52.0819,741800,0.0000
2013-03-22,55.3400,56.8800,55.1600,56.2400,51.0739,911700,0.0000
2013-03-15,55.1700,55.7400,54.9500,55.7000,50.5835,1268400,0.0000
2013-03-08,53.2800,55.2500,52.9700,55.2500,50.1748,766800,0.0000
2013-03-01,52.9400,53.9900,52.0900,53.4700,48.5583,1217800,0.0000
2013-02-22,53.3600,53.8500,51.9460,52.8200,47.9680,984400,0.0000
2013-02-15,52.4700,53.3100,51.8800,53.1100,48.2314,878700,0.0000
2013-02-08,51.9100,53.4300,51.8000,52.5100,47.6865,1377400,0.0000
2013-02-01,51.9500,52.2500,50.7900,52.2300,47.4322,1574800,0.2500
2013-01-25,52.2200,52.3900,51.7300,52.0300,47.0203,843500,0.0000
2013-01-18,50.8800,52.3300,50.7500,52.3300,47.2914,783200,0.0000
2013-01-11,49.3700,51.8700,49.1000,51.0400,46.1256,1344700,0.0000
2013-01-04,47.1900,49.6300,47.0400,49.6200,44.8423,1303300,0.0000
2012-12-28,47.6500,48.1000,47.1900,47.3400,42.7819,554400,0.0000
2012-12-21,46.9900,48.5500,46.9800,47.7600,43.1614,2045200,0.0000
2012-12-14,47.6200,48.1000,46.8400,46.9200,42.4023,1139800,0.0000
2012-12-07,48.0200,48.0700,46.6100,47.7000,43.1072,1151100,0.0000
2012-11-30,47.4100,48.1200,46.7100,47.6700,43.0801,1364700,0.0000
2012-11-23,46.5900,47.6300,46.4000,47.6200,43.0349,912600,0.0000
2012-11-16,48.0000,48.3500,45.1900,46.1900,41.7426,2412200,0.0000
2012-11-09,49.7000,50.7500,48.0000,48.0200,43.3964,1502500,0.2200
2012-11-02,50.8000,53.3600,49.1700,49.4900,44.5276,1243000,0.0000
2012-10-26,52.3000,52.6500,51.0500,51.6500,46.4710,691300,0.0000
2012-10-19,51.2100,53.0600,50.9300,52.3400,47.0918,638600,0.0000
2012-10-12,52.4500,52.7200,51.1100,51.2300,46.0931,722900,0.0000
2012-10-05,51.7100,53.0000,51.0400,52.5700,47.2988,1098000,0.0000
2012-09-28,52.1700,53.0300,51.0900,51.7100,46.5250,1268300,0.0000
2012-09-21,52.4300,53.1900,51.8500,52.6700,47.3888,1262600,0.0000
2012-09-14,50.7000,52.5900,50.3300,52.4600,47.1998,868400,0.0000
2012-09-07,50.7200,51.8000,50.0700,51.4900,46.3271,1469900,0.0000
2012-08-31,51.0000,51.1400,50.2000,50.6500,45.5713,900600,0.0000
2012-08-24,50.6800,50.9100,50.0000,50.8200,45.7243,740000,0.0000
2012-08-17,49.7500,50.8700,49.2960,50.6200,45.5443,733900,0.0000
2012-08-10,50.0600,50.4600,49.5100,49.8900,44.8875,833400,0.2200
2012-08-03,50.7200,51.2200,48.0800,50.0600,44.8434,1153500,0.0000
2012-07-27,49.4700,51.9600,48.3500,50.6500,45.3719,1556400,0.0000
2012-07-20,49.8100,50.8100,49.1500,50.1100,44.8881,839700,0.0000
2012-07-13,49.4900,50.2100,47.5600,49.8400,44.6463,2100600,0.0000
2012-07-06,51.0700,52.7400,50.9200,51.4600,46.0975,783600,0.0000
2012-06-29,51.1900,51.7000,50.0550,51.0500,45.7302,1024700,0.0000
2012-06-22,52.1800,53.2600,51.0000,51.7200,46.3304,1088300,0.0000
2012-06-15,52.7500,52.9300,51.7100,52.2700,46.8231,856300,0.0000
2012-06-08,50.2500,52.5300,49.6900,52.4000,46.9395,940100,0.0000
2012-06-01,51.0300,51.6200,49.3600,50.2600,45.0225,3360400,0.0000
2012-05-25,49.8200,51.4100,49.7400,50.6100,45.3360,1112900,0.0000
2012-05-18,52.8300,52.8500,49.6300,49.7000,44.5209,1049000,0.0000
2012-05-11,53.5100,54.1100,52.6900,53.3900,47.8263,952000,0.0000
2012-05-04,54.7600,55.3900,53.6100,53.7200,48.1220,1344000,0.0000
2012-04-27,54.3900,55.1100,53.5500,54.7900,49.0804,1462400,0.2200
2012-04-20,54.1300,55.0500,53.7300,54.8900,48.9706,1020700,0.0000
2012-04-13,53.7100,54.6400,52.0300,54.0800,48.2480,1252000,0.0000
2012-04-05,54.7600,55.4900,54.0000,54.3400,48.4799,846600,0.0000
2012-03-30,54.5300,55.0000,54.4600,54.7700,48.8636,1031400,0.0000
2012-03-23,54.5500,54.9600,53.2300,54.2900,48.4353,870000,0.0000
2012-03-16,53.5100,54.9200,53.2700,54.7400,48.8368,1372600,0.0000
2012-03-09,53.0200,53.9000,51.9600,53.5400,47.7662,1390700,0.0000
2012-03-02,53.0400,53.4700,52.2000,53.2000,47.4629,1551800,0.0000
2012-02-24,53.0300,53.6000,51.6500,53.2300,47.4896,714300,0.0000
2012-02-17,53.2800,53.5700,51.9300,52.8200,47.1239,801800,0.0000
2012-02-10,53.3500,53.8200,51.1500,53.0400,47.3201,910100,0.0000
2012-02-03,51.7500,53.8000,51.2600,53.5000,47.7305,1001200,0.2200
2012-01-27,51.5300,52.5500,51.0100,52.2800,46.4461,968700,0.0000
2012-01-20,51.8400,52.3700,51.3100,51.5500,45.7975,671900,0.0000
2012-01-13,52.1000,52.4100,51.1200,51.4800,45.7354,956900,0.0000
2012-01-06,53.1800,53.4400,51.4400,51.8500,46.0641,908000,0.0000
2011-12-30,52.3300,52.8700,51.6300,52.1700,46.3484,456200,0.0000
2011-12-23,51.4700,52.7300,49.8500,52.5800,46.7126,813300,0.0000
2011-12-16,50.1200,51.3400,48.8000,51.1800,45.4688,1534100,0.0000
2011-12-09,51.0000,51.9000,49.6800,50.7300,45.0690,998600,0.0000
2011-12-02,47.5600,51.7500,47.5600,50.9500,45.2645,1432000,0.0000
2011-11-25,47.3100,48.0700,46.4800,46.5100,41.3200,878800,0.0000
2011-11-18,48.3400,49.1600,47.4700,48.0300,42.6703,991000,0.0000
2011-11-11,48.5600,48.9000,46.7500,48.6000,43.1767,1129600,0.2200
2011-11-04,48.6900,49.2400,45.9800,48.7600,43.1233,1136900,0.0000
2011-10-28,48.7500,49.8500,47.9300,49.1300,43.4505,923000,0.0000
2011-10-21,48.3000,48.8400,46.9201,48.4900,42.8845,656300,0.0000
2011-10-14,46.8300,49.0600,46.7700,48.6400,43.0172,938800,0.0000
2011-10-07,44.3500,46.8800,41.9810,45.9500,40.6381,1141300,0.0000
2011-09-30,46.4100,48.4700,44.6600,44.6700,39.5061,1013000,0.0000
2011-09-23,48.2600,49.1400,45.3000,46.1500,40.8150,1193700,0.0000
2011-09-16,47.8200,50.0800,47.0900,49.2300,43.5390,1056500,0.0000
2011-09-09,46.6700,48.9800,46.6200,48.0800,42.5219,1336900,0.0000
2011-09-02,49.4200,51.1200,47.7100,47.9900,42.4423,1016300,0.0000
2011-08-26,47.8000,48.7040,46.5000,48.5000,42.8934,1244600,0.0000
2011-08-19,47.4800,48.6300,45.5200,46.6600,41.2661,1497300,0.0000
2011-08-12,46.3200,48.2500,44.9600,47.8000,42.2743,1878400,0.0000
2011-08-05,51.5300,51.6600,46.8300,47.7400,42.2212,1465300,0.0000
2011-07-29,52.5600,53.2400,49.7900,51.0500,45.1486,1216300,0.2200
2011-07-22,52.4000,53.7900,50.4000,53.0400,46.7072,1155484,0.0000
2011-07-15,53.5000,54.1000,52.1800,52.6600,46.3726,677100,0.0000
2011-07-08,53.2600,54.6600,52.8300,54.2100,47.7376,722800,0.0000
2011-07-01,50.6200,53.3400,50.2300,53.2400,46.8834,988400,0.0000
2011-06-24,50.4500,51.4200,49.9300,50.6100,44.5674,724900,0.0000
2011-06-17,51.7800,51.9400,50.0600,50.4800,44.4529,1219200,0.0000
2011-06-10,51.1600,51.3660,50.2700,50.4000,44.3825,828000,0.0000
2011-06-03,52.6200,53.4800,51.1100,51.1500,45.0429,1063700,0.0000
2011-05-27,51.7000,52.4400,51.1700,52.2300,45.9940,729300,0.0000
2011-05-20,52.0500,53.8000,51.6700,52.5200,46.2493,1251100,0.0000
2011-05-13,51.3400,53.0800,51.2000,52.3100,46.0644,929800,0.0000
2011-05-06,52.5400,53.0200,51.0300,51.2600,45.1398,846700,0.0000
2011-04-29,51.2500,52.7500,50.7700,52.4500,46.1877,747500,0.1800
2011-04-21,49.7400,51.5100,48.8500,51.3700,45.0779,551800,0.0000
2011-04-15,50.5400,50.5400,49.1500,50.2300,44.0775,388600,0.0000
2011-04-08,50.9400,51.8700,50.1300,50.3600,44.1916,557100,0.0000
2011-04-01,49.1500,51.1100,48.5200,50.7800,44.5602,718800,0.0000
2011-03-25,48.4600,49.7500,48.3100,48.9700,42.9719,556700,0.0000
2011-03-18,47.7400,48.5600,46.5000,48.0000,42.1207,957800,0.0000
2011-03-11,48.0900,49.7600,47.3500,48.1400,42.2435,962800,0.0000
2011-03-04,48.2100,48.8700,47.2300,47.9400,42.0680,979400,0.0000
2011-02-25,48.8400,49.3300,46.9500,48.0400,42.1558,775100,0.0000
2011-02-18,49.7300,49.8990,48.9000,49.4900,43.4282,1051500,0.0000
2011-02-11,48.8100,50.0600,48.5300,49.4800,43.4194,724000,0.0000
2011-02-04,47.7900,48.8800,47.5300,48.6000,42.6472,654600,0.1800
2011-01-28,48.1300,48.9400,47.6948,47.8100,41.7974,665500,0.0000
2011-01-21,48.3500,49.1400,47.7000,48.0100,41.9723,771400,0.0000
2011-01-14,47.2200,48.5200,46.7500,48.4700,42.3744,666200,0.0000
2011-01-07,47.7800,48.3000,47.0800,47.3800,41.4215,597400,0.0000
2010-12-31,47.7100,48.3600,47.4100,47.5700,41.5876,483300,0.0000
2010-12-23,47.1600,48.4500,46.9900,47.8700,41.8499,498400,0.0000
2010-12-17,47.1700,47.5100,46.5900,47.1100,41.1855,931100,0.0000
2010-12-10,48.1600,48.3700,46.3601,47.0600,41.1417,1102400,0.0000
2010-12-03,46.0300,48.4200,45.1900,48.2200,42.1559,731600,0.0000
2010-11-26,45.3000,46.6700,44.9500,46.3500,40.5210,345600,0.0000
2010-11-19,46.2100,46.5500,45.0700,45.5800,39.8479,581200,0.0000
2010-11-12,46.0800,46.9200,45.9800,46.0100,40.2238,668500,0.0000
2010-11-05,45.0300,46.5000,44.5401,46.4200,40.5822,683000,0.1800
2010-10-29,45.2000,45.7100,44.7000,44.8800,39.0789,877100,0.0000
2010-10-22,46.9400,47.6100,44.4000,45.0500,39.2269,1160700,0.0000
2010-10-15,46.3900,47.4500,46.1600,46.7600,40.7159,593500,0.0000
2010-10-08,45.2900,46.7500,44.9000,46.4400,40.4373,595900,0.0000
2010-10-01,44.7600,46.5500,44.2100,45.2800,39.4272,725600,0.0000
2010-09-24,45.3500,45.6600,43.9700,44.8300,39.0354,612300,0.0000
2010-09-17,44.3800,46.0200,44.3800,45.2700,39.4185,1240200,0.0000
2010-09-10,43.7800,44.5470,43.3500,44.0100,38.3214,352700,0.0000
2010-09-03,41.8900,43.9390,40.7500,43.8500,38.1821,628600,0.0000
2010-08-27,42.3600,42.3600,40.3100,42.0100,36.5799,560100,0.0000
2010-08-20,41.6900,43.1000,41.4000,42.0600,36.6234,522800,0.0000
2010-08-13,44.0000,44.0000,41.1000,41.8500,36.4406,800800,0.0000
2010-08-06,43.7800,44.0490,43.1000,43.7700,38.1124,840900,0.0000
2010-07-30,42.9100,43.8200,42.3200,43.0700,37.5029,1021500,0.1800
2010-07-23,39.8300,42.8400,39.1800,42.7000,37.0260,999400,0.0000
2010-07-16,39.2300,40.8900,38.8100,39.8300,34.5373,677400,0.0000
2010-07-09,38.3500,39.3800,37.1700,39.2300,34.0171,510300,0.0000
2010-07-02,38.9000,39.5000,36.9115,38.0300,32.9765,926500,0.0000
2010-06-25,40.8600,41.1200,38.0000,38.7400,33.5922,916200,0.0000
2010-06-18,39.3600,40.9000,38.8800,40.5200,35.1356,828700,0.0000
2010-06-11,38.5600,39.1600,37.4100,39.1300,33.9303,793700,0.0000
2010-06-04,39.7200,40.1400,38.3100,38.4600,33.3494,975000,0.0000
2010-05-28,38.5600,40.1300,37.3400,39.8600,34.5633,1164300,0.0000
2010-05-21,40.8700,41.8100,37.9400,38.7100,33.5662,1385800,0.0000
2010-05-14,41.6100,42.8400,40.6200,40.8100,35.3871,1183200,0.0000
2010-05-07,43.2900,44.1200,39.6500,40.3400,34.9796,1425400,0.0000
2010-04-30,43.2700,44.1800,42.5000,43.0400,37.3208,1272900,0.1500
2010-04-23,42.6400,43.1850,42.2500,43.1000,37.2432,878700,0.0000
2010-04-16,41.0000,44.3600,40.8000,42.8500,37.0272,1534400,0.0000
2010-04-09,39.5300,40.9300,39.2200,40.9200,35.3594,734800,0.0000
2010-04-01,39.1700,39.8400,38.6300,39.5000,34.1324,419500,0.0000
2010-03-26,39.5100,40.0000,38.7900,39.1200,33.8040,908600,0.0000
2010-03-19,40.3900,40.8500,39.6900,39.8100,34.4003,893200,0.0000
2010-03-12,40.3000,40.8300,40.0000,40.4000,34.9101,1269100,0.0000
2010-03-05,38.5600,40.3700,38.3400,40.3500,34.8669,794300,0.0000
2010-02-26,38.3400,38.6500,37.5600,38.5300,33.2942,775400,0.0000
2010-02-19,38.4000,38.4100,37.2400,38.1200,32.9399,1068100,0.0000
2010-02-12,35.0300,38.4900,34.8700,38.0400,32.8708,1935900,0.0000
2010-02-05,35.4100,36.3100,34.4600,35.0300,30.2698,769100,0.1500
2010-01-29,36.2200,36.5900,35.7400,35.9200,30.9085,729000,0.0000
2010-01-22,36.1100,36.8900,35.9300,36.0600,31.0290,537800,0.0000
2010-01-15,36.8400,37.0100,36.0700,36.2400,31.1838,686200,0.0000
2010-01-08,35.8900,36.8900,35.8900,36.7800,31.6485,1007200,0.0000
2009-12-31,36.4200,36.5175,35.7400,35.7400,30.7536,561500,0.0000
2009-12-24,36.1500,36.4400,35.9600,36.3700,31.2957,679900,0.0000
2009-12-18,36.9400,36.9800,35.8400,35.9300,30.9171,890400,0.0000
2009-12-11,36.4100,37.0900,36.0400,36.5800,31.4764,607800,0.0000
2009-12-04,35.8100,36.9900,35.4200,36.5300,31.4334,812100,0.0000
2009-11-27,36.8600,37.3000,35.6100,35.9100,30.8999,255300,0.0000
2009-11-20,36.3400,37.0700,35.7500,36.3400,31.2699,1063500,0.0000
2009-11-13,35.6200,36.2700,35.4500,36.0000,30.9773,877500,0.0000
2009-11-06,35.3800,35.7600,34.5200,35.4400,30.4955,1196400,0.0000
2009-10-30,36.8500,37.4600,35.0400,35.3100,30.3836,1333200,0.1500
2009-10-23,37.6900,37.7800,36.4300,37.1700,31.8547,1077600,0.0000
2009-10-16,38.0700,38.9600,36.5000,37.4900,32.1289,1424700,0.0000
2009-10-09,36.2100,37.9800,35.9800,37.9800,32.5488,822000,0.0000
2009-10-02,36.6400,37.6500,36.0300,36.1200,30.9548,805000,0.0000
2009-09-25,36.4700,38.0900,36.2100,36.3800,31.1776,939000,0.0000
2009-09-18,35.2800,37.4700,35.1100,36.7000,31.4519,1029700,0.0000
2009-09-11,34.7000,35.6600,34.1900,35.4800,30.4063,748600,0.0000
2009-09-04,34.4700,34.8500,33.5800,34.3000,29.3951,728400,0.0000
2009-08-28,35.7600,35.9500,34.4700,34.7700,29.7979,476800,0.0000
2009-08-21,34.9600,36.0000,34.3000,35.6300,30.5349,596700,0.0000
2009-08-14,35.1100,36.2100,34.5800,35.4500,30.3806,694500,0.0000
2009-08-07,35.3400,36.0900,34.9700,35.3200,30.2692,769100,0.0000
2009-07-31,35.9000,35.9000,34.4800,34.9200,29.9264,1258200,0.1500
2009-07-24,35.3900,36.4900,35.1200,36.0900,30.7981,1001600,0.0000
2009-07-17,32.7500,36.1000,32.3600,35.1400,29.9874,1323700,0.0000
2009-07-10,33.3600,33.4800,32.1400,32.7100,27.9137,871100,0.0000
2009-07-02,33.4900,34.6500,33.0800,33.2700,28.3916,720000,0.0000
2009-06-26,32.7300,33.4500,31.9100,33.3600,28.4684,1209400,0.0000
2009-06-19,33.8400,34.0200,32.7400,32.9100,28.0843,1174600,0.0000
2009-06-12,32.0800,34.2600,32.0400,34.0200,29.0316,1461500,0.0000
2009-06-05,31.5500,33.3100,31.5500,32.4400,27.6833,1714200,0.0000
2009-05-29,30.5300,31.9000,30.0700,31.0100,26.4629,1246900,0.0000
2009-05-22,30.9000,31.6200,30.4009,30.6800,26.1813,1239100,0.0000
2009-05-15,30.6800,31.2800,30.0100,30.6500,26.1557,1407800,0.0000
2009-05-08,30.8500,31.9300,30.4900,31.3600,26.7616,1696700,0.0000
2009-05-01,29.8100,31.6300,29.5800,30.6900,26.1899,1816400,0.1500
2009-04-24,29.2400,30.4700,28.6100,30.2800,25.7124,2235700,0.0000
2009-04-17,33.1900,33.1900,29.1000,29.6700,25.1944,2641600,0.0000
2009-04-09,32.7300,33.5500,31.2200,33.5000,28.4467,1275200,0.0000
2009-04-03,31.4100,33.2100,30.2900,32.8500,27.8947,1950600,0.0000
2009-03-27,30.0800,32.5100,29.5350,32.1000,27.2579,1408600,0.0000
2009-03-20,27.5800,30.5100,27.1000,29.4900,25.0416,2348400,0.0000
2009-03-13,25.4500,27.5500,25.1100,27.4200,23.2838,1817800,0.0000
2009-03-06,27.6200,27.8400,24.9500,25.5500,21.6959,2740500,0.0000
2009-02-27,27.5600,28.5400,26.2500,28.0600,23.8273,3144700,0.0000
2009-02-20,28.2400,28.5400,26.7000,27.3200,23.1989,1664600,0.0000
2009-02-13,30.6000,30.8300,28.5900,29.1800,24.7783,2414300,0.0000
2009-02-06,30.3800,30.9300,29.0200,30.8600,26.2049,4045900,0.0000
2009-01-30,30.0500,32.3200,29.9100,30.8200,26.1709,1885300,0.1500
2009-01-23,30.2300,30.5800,29.0400,30.0100,25.3594,1926800,0.0000
2009-01-16,32.5600,32.7500,29.3700,30.4400,25.7228,3129600,0.0000
2009-01-09,35.6900,36.0700,32.1700,32.5400,27.4973,3166700,0.0000
2009-01-02,33.6100,36.0800,32.9305,35.8200,30.2690,1357600,0.0000
2008-12-26,33.1700,33.6900,32.0700,33.5800,28.3762,1274300,0.0000
2008-12-19,32.5000,34.9300,31.5200,33.4400,28.2578,2768500,0.0000
2008-12-12,32.9000,33.8500,30.0900,32.2400,27.2438,3632800,0.0000
2008-12-05,32.4900,32.4900,29.2500,32.1400,27.1593,2902000,0.0000
2008-11-28,29.5200,33.4400,29.3800,33.4400,28.2578,1638200,0.0000
2008-11-21,29.5300,31.1300,27.8400,29.2300,24.7003,3169600,0.0000
2008-11-14,32.2000,32.2900,28.5200,29.8800,25.2495,1873000,0.0000
2008-11-07,30.3100,32.3300,30.0100,31.5900,26.6945,1836500,0.0000
2008-10-31,26.7800,30.6199,25.8900,30.3200,25.6213,2935300,0.1500
2008-10-24,32.5300,32.9900,25.4900,27.1600,22.8218,3792200,0.0000
2008-10-17,34.1300,35.9400,27.0100,32.2300,27.0820,3363400,0.0000
2008-10-10,35.4900,36.6800,28.9000,33.5300,28.1744,2938900,0.0000
2008-10-03,39.0000,39.7500,36.3000,36.5200,30.6868,2608000,0.0000
2008-09-26,41.0700,41.5700,39.1300,39.7500,33.4009,1603900,0.0000
2008-09-19,39.1500,44.0300,37.6500,41.3900,34.7789,2824100,0.0000
2008-09-12,40.6200,40.9300,38.9300,40.2800,33.8462,1722100,0.0000
2008-09-05,40.7900,41.7800,38.9600,39.7400,33.3925,1257100,0.0000
2008-08-29,39.8600,41.0600,39.0100,40.3900,33.9386,1445900,0.0000
2008-08-22,40.5300,40.5300,38.8700,40.1000,33.6950,1414400,0.0000
2008-08-15,39.7300,41.1100,39.2400,40.4800,34.0143,1334700,0.0000
2008-08-08,38.8100,40.3000,37.6900,39.7300,33.3841,1673600,0.0000
2008-08-01,37.1700,39.8800,36.7500,38.7100,32.5270,2234700,0.1500
2008-07-25,38.3900,38.9500,36.5400,37.5900,31.4588,3353900,0.0000
2008-07-18,41.0000,43.6400,37.2100,38.0700,31.8605,4550500,0.0000
2008-07-11,41.4500,42.0800,40.2500,41.4200,34.6641,1693200,0.0000
2008-07-03,42.4000,42.5600,40.4900,41.1600,34.4465,2128100,0.0000
2008-06-27,42.2900,42.8300,40.7400,42.3600,35.4508,6955000,0.0000
2008-06-20,42.9500,43.4200,41.8500,42.1400,35.2667,2204100,0.0000
2008-06-13,45.1400,45.1400,42.6000,43.2600,36.2040,2422800,0.0000
2008-06-06,44.8900,46.1900,43.8000,44.7600,37.4593,2113100,0.0000
2008-05-30,44.2200,45.8900,43.2300,44.7200,37.4259,2207700,0.0000
2008-05-23,44.5700,44.8530,43.2000,43.9500,36.7815,2100600,0.0000
2008-05-16,43.9800,45.2100,43.2600,44.7200,37.4259,1338700,0.0000
2008-05-09,44.1500,44.7500,42.4900,43.7300,36.5973,1740500,0.0000
2008-05-02,45.0600,45.3300,43.8100,44.0900,36.8986,1945300,0.1300
2008-04-25,44.3300,45.4000,43.3900,44.9500,37.5091,2351200,0.0000
2008-04-18,39.5200,45.4200,39.2001,44.2700,36.9417,3733000,0.0000
2008-04-11,40.7100,41.1400,39.5600,39.8200,33.2283,1548200,0.0000
2008-04-04,38.4600,41.1800,38.2200,40.5600,33.8458,1741000,0.0000
2008-03-28,37.8400,39.7600,37.8100,38.5500,32.1686,1545800,0.0000
2008-03-20,34.8000,38.8800,34.5100,37.7000,31.4593,3371500,0.0000
2008-03-14,35.9700,37.0400,34.7000,35.4000,29.5400,2817700,0.0000
2008-03-07,37.8400,38.1100,35.0200,35.7800,29.8571,3444900,0.0000
2008-02-29,38.6900,40.0700,37.2900,37.4800,31.2757,2430000,0.0000
2008-02-22,39.0900,39.4700,37.8000,38.7800,32.3605,1765100,0.0000
2008-02-15,36.2900,39.8200,36.2900,38.9400,32.4940,8131400,0.0000
2008-02-08,38.0300,38.1500,33.8700,36.3500,30.3328,3308700,0.0000
2008-02-01,36.1300,38.7200,35.2300,38.0600,31.7597,2538200,0.1300
2008-01-25,33.6500,36.8000,32.8700,36.3600,30.2358,2722300,0.0000
2008-01-18,38.3300,39.3800,33.1300,35.1100,29.1963,3079000,0.0000
2008-01-11,40.7100,40.8500,38.0000,38.0000,31.5996,2661100,0.0000
2008-01-04,41.3300,42.7200,39.0000,40.4100,33.6037,1923800,0.0000
2007-12-28,42.8400,43.5100,41.3400,41.6900,34.6681,824600,0.0000
2007-12-21,41.3600,42.7400,39.6900,42.4100,35.2668,2627600,0.0000
2007-12-14,43.4600,44.0100,41.6100,41.7200,34.6930,1474800,0.0000
2007-12-07,42.0500,43.7699,40.6100,43.4500,36.1316,1181700,0.0000
2007-11-30,41.9700,43.5100,40.4200,42.2100,35.1005,2401700,0.0000
2007-11-23,41.0000,42.4600,39.8300,42.0000,34.9258,1287000,0.0000
2007-11-16,41.5100,43.2600,40.8948,41.4400,34.4602,1835200,0.0000
2007-11-09,42.2100,44.0000,41.0000,41.6200,34.6098,1869800,0.0000
2007-11-02,44.3000,44.7500,42.0900,42.9600,35.7242,2191100,0.1300
2007-10-26,40.6400,44.7300,40.6400,44.3900,36.8029,2942300,0.0000
2007-10-19,39.5400,42.4700,38.5300,41.0000,33.9923,2358600,0.0000
2007-10-12,39.8000,40.1100,38.3900,39.5900,32.8233,1183500,0.0000
2007-10-05,37.7900,40.1100,37.7500,39.9300,33.1052,1216000,0.0000
2007-09-28,36.5400,38.2200,35.9500,37.8700,31.3973,1291300,0.0000
2007-09-21,33.9600,37.0200,33.7000,36.6200,30.3609,2299600,0.0000
2007-09-14,34.4500,35.0900,33.3700,34.1100,28.2799,2081100,0.0000
2007-09-07,36.1000,36.6500,33.9220,34.2000,28.3546,1750300,0.0000
2007-08-31,36.4200,36.6600,34.8400,36.3300,30.1205,1297300,0.0000
2007-08-24,37.6200,37.8300,35.7500,36.6000,30.3444,2037000,0.0000
2007-08-17,39.4000,40.0900,35.4300,37.5800,31.1569,2574500,0.0000
2007-08-10,36.2800,40.0300,34.9500,38.8400,32.2015,3521400,0.0000
2007-08-03,35.4300,37.3700,35.0000,36.1800,29.9961,3160100,0.0000
2007-07-27,38.1000,38.3400,34.9900,35.3800,29.3329,2597000,0.1300
2007-07-20,37.7300,39.4200,36.5800,37.9500,31.3484,3928000,0.0000
2007-07-13,37.2100,37.9100,36.3500,37.9100,31.3154,1300100,0.0000
2007-07-06,35.8600,37.1300,35.8200,37.0800,30.6298,738600,0.0000
2007-06-29,35.6900,36.7800,35.0000,35.5600,29.3742,1521700,0.0000
2007-06-22,37.9400,38.0000,35.4800,35.8100,29.5807,1597400,0.0000
2007-06-15,36.8000,38.1700,35.7300,37.9200,31.3237,1670000,0.0000
2007-06-08,37.9600,38.3000,36.5100,36.9800,30.5472,1189300,0.0000
2007-06-01,37.1700,38.3100,37.0100,38.0500,31.4310,1563700,0.0000
2007-05-25,36.7000,37.8000,36.5800,37.1000,30.6463,1772700,0.0000
2007-05-18,37.2600,37.4700,36.1500,36.8100,30.4067,2012200,0.0000
2007-05-11,75.0000,75.4400,35.9900,37.2100,30.7372,1489774,0.0000
2007-05-04,75.6000,75.6000,73.0800,74.9900,30.9726,879000,0.2600
2007-04-27,74.0100,76.5800,73.6200,75.5400,31.0894,929700,0.0000
2007-04-20,69.7500,76.9800,68.8000,75.1200,30.9165,1574100,0.0000
2007-04-13,68.5500,69.9800,67.3600,69.3500,28.5418,553400,0.0000
2007-04-05,67.2000,68.7600,66.6800,68.6000,28.2332,374700,0.0000
2007-03-30,68.2500,68.3400,66.3900,66.9300,27.5458,730700,0.0000
2007-03-23,65.9300,68.5600,65.7300,68.5100,28.1961,649300,0.0000
2007-03-16,66.4400,67.4500,64.5000,65.6400,27.0149,941300,0.0000
2007-03-09,65.1900,67.3500,64.8400,66.4400,27.3442,1150700,0.0000
2007-03-02,67.6711,67.7500,64.5000,65.7800,27.0725,1750500,0.0000
2007-02-23,65.1600,67.0500,64.9700,66.7900,27.4882,989700,0.0000
2007-02-16,66.0800,66.5900,64.2900,65.2800,26.8668,1232000,0.0000
2007-02-09,61.6200,70.3400,60.3000,66.0000,27.1631,2110900,0.0000
2007-02-02,60.7900,61.9800,60.6100,61.6200,25.3605,880300,0.2200
2007-01-26,60.9400,61.8000,59.6900,60.7800,24.9254,945400,0.0000
2007-01-19,60.9500,62.0000,59.4300,60.7000,24.8926,626600,0.0000
2007-01-12,58.0100,60.4400,57.4500,60.3700,24.7572,546400,0.0000
2007-01-05,59.5000,60.7000,57.7600,58.2000,23.8673,534500,0.0000
2006-12-29,58.0500,60.4800,58.0500,59.0400,24.2118,428200,0.0000
2006-12-22,59.9400,60.0000,57.8400,58.2500,23.8878,876500,0.0000
2006-12-15,60.1100,60.4200,58.9600,59.7700,24.5112,853300,0.0000
2006-12-08,60.7000,62.2900,59.5900,60.0300,24.6178,856200,0.0000
2006-12-01,60.1000,61.2700,59.4100,60.5000,24.8105,894500,0.0000
2006-11-24,60.5100,60.9400,59.7000,60.4500,24.7900,570100,0.0000
2006-11-17,56.9500,60.6900,56.8000,60.5000,24.8105,1129300,0.0000
2006-11-10,55.9900,57.4500,55.5200,57.0600,23.3998,858100,0.0000
2006-11-03,54.7000,55.9600,53.7600,55.8100,22.8872,886800,0.2200
2006-10-27,55.9600,56.7500,54.7700,54.9100,22.4288,742200,0.0000
2006-10-20,55.1000,56.7500,54.0000,56.0500,22.8945,794000,0.0000
2006-10-13,52.1200,55.1300,52.0000,54.9300,22.4370,713300,0.0000
2006-10-06,50.5700,52.7500,49.3900,52.4400,21.4199,915500,0.0000
2006-09-29,49.7500,52.1500,49.3400,50.8800,20.7827,901100,0.0000
2006-09-22,49.9900,50.8500,48.9000,49.5900,20.2558,775400,0.0000
2006-09-15,49.7500,51.5000,49.4400,50.1600,20.4886,699300,0.0000
2006-09-08,51.3800,52.2400,49.3500,49.9900,20.4192,496800,0.0000
2006-09-01,50.4200,52.6500,50.4000,51.5100,21.0400,637800,0.0000
2006-08-25,51.9000,52.1300,50.1200,50.4200,20.5948,450200,0.0000
2006-08-18,50.6000,52.7500,50.2900,52.1100,21.2851,475000,0.0000
2006-08-11,51.9700,51.9900,49.8650,50.5300,20.6397,667600,0.0000
2006-08-04,51.5000,52.7400,50.3900,52.1900,21.3178,671200,0.0000
2006-07-28,49.1500,51.9000,49.1500,51.6200,21.0850,804200,0.2200
2006-07-21,47.7600,51.6000,47.0100,48.7100,19.8119,945800,0.0000
2006-07-14,49.4300,50.7400,46.8600,47.7600,19.4255,831700,0.0000
2006-07-07,50.2600,51.3500,49.1300,49.2500,20.0315,937100,0.0000
2006-06-30,50.6500,53.0000,49.6100,49.6100,20.1780,2400700,0.0000
2006-06-23,50.8000,50.9500,49.6100,50.5100,20.5440,509300,0.0000
2006-06-16,51.1500,51.9900,49.7800,50.6800,20.6132,516800,0.0000
2006-06-09,52.6300,53.1000,50.7100,51.7900,21.0646,629100,0.0000
2006-06-02,51.7000,52.8200,51.3500,52.6300,21.4063,499400,0.0000
2006-05-26,52.0700,52.6300,50.4000,51.7300,21.0402,612100,0.0000
2006-05-19,52.9100,53.4900,51.7700,52.2000,21.2314,369100,0.0000
2006-05-12,54.0400,54.7000,52.2200,52.9100,21.5202,321400,0.0000
2006-05-05,52.4100,54.1700,52.1500,53.9700,21.9513,398000,0.0000
2006-04-28,52.4000,53.0200,51.3800,52.4100,21.3168,568000,0.2000
2006-04-21,53.0000,54.2200,51.0200,52.3000,21.1910,493900,0.0000
2006-04-13,53.4300,53.4500,52.3200,52.7500,21.3733,243800,0.0000
2006-04-07,55.2500,55.3300,53.1000,53.5800,21.7096,403900,0.0000
2006-03-31,54.3300,55.3400,53.5100,55.2500,22.3862,450100,0.0000
2006-03-24,55.0000,55.3100,54.1800,54.4600,22.0661,352800,0.0000
2006-03-17,54.4400,55.3300,53.9300,55.0000,22.2849,400600,0.0000
2006-03-10,53.4800,54.3000,52.4800,54.3000,22.0013,422300,0.0000
2006-03-03,53.6200,54.2000,52.4500,53.4200,21.6448,397500,0.0000
2006-02-24,53.9700,54.2600,53.4200,53.7800,21.7906,344800,0.0000
2006-02-17,56.8300,56.8300,53.3800,54.2700,21.9892,602800,0.0000
2006-02-10,55.3600,57.4500,54.2900,56.9600,23.0791,347300,0.0000
2006-02-03,54.5800,56.8700,54.5000,55.3600,22.4308,417200,0.2000
2006-01-27,55.0800,55.5500,53.6400,54.7800,22.1149,310700,0.0000
2006-01-20,54.0400,55.2000,53.5100,55.0600,22.2280,218500,0.0000
2006-01-13,53.5900,54.7500,53.5900,54.1500,21.8606,302800,0.0000
2006-01-06,52.3700,54.0600,51.7100,53.5900,21.6345,409400,0.0000
2005-12-30,52.9700,53.7100,52.1500,52.2000,21.0734,231100,0.0000
2005-12-23,52.3500,53.1500,52.0000,53.0700,21.4246,599700,0.0000
2005-12-16,54.5200,55.0000,52.4000,52.6000,21.2349,546700,0.0000
2005-12-09,54.6000,55.4800,53.7700,54.4900,21.9979,624700,0.0000
2005-12-02,54.3500,55.0000,52.7600,54.7000,22.0826,548400,0.0000
2005-11-25,53.5100,54.1400,53.0000,54.0200,21.8081,212900,0.0000
2005-11-18,52.6500,54.4300,52.1500,53.6200,21.6466,294300,0.0000
2005-11-11,52.3000,53.0800,51.1500,52.9000,21.3560,373800,0.0000
2005-11-04,50.5300,52.6500,50.2700,52.1800,21.0653,467500,0.2000
2005-10-28,48.3000,50.7700,48.2300,50.7500,20.4083,839200,0.0000
2005-10-21,52.0000,52.9000,47.6000,48.5500,19.5236,993700,0.0000
2005-10-14,49.4500,52.2100,48.9600,51.9500,20.8908,666200,0.0000
2005-10-07,50.0500,50.9000,49.0500,49.9200,20.0745,535200,0.0000
2005-09-30,50.0000,50.7400,49.2700,49.8100,20.0303,519000,0.0000
2005-09-23,48.5000,49.0400,47.1100,48.1300,19.3547,577400,0.0000
2005-09-16,49.4500,50.2500,48.0100,48.6000,19.5437,346800,0.0000
2005-09-09,50.0000,51.0000,49.1600,49.5900,19.9418,211400,0.0000
2005-09-02,48.0100,50.4500,47.8000,49.8100,20.0303,342200,0.0000
2005-08-26,49.2400,49.5300,48.2200,48.2200,19.3909,204200,0.0000
2005-08-19,50.1300,50.7000,48.6100,49.1300,19.7568,431600,0.0000
2005-08-12,50.2000,50.7300,49.8600,50.1300,20.1590,436000,0.0000
2005-08-05,49.9600,50.6400,49.6600,50.0000,20.1067,553700,0.0000
2005-07-29,50.3700,50.9900,49.6800,49.8500,20.0464,528600,0.2000
2005-07-22,50.1300,50.9900,49.4000,50.3600,20.1705,526100,0.0000
2005-07-15,51.4800,52.1000,49.9800,50.2100,20.1104,423000,0.0000
2005-07-08,50.8600,51.3900,49.2500,51.3100,20.5510,299100,0.0000
2005-07-01,49.3900,51.3800,49.0000,51.0000,20.4269,827000,0.0000
2005-06-24,49.5600,50.1300,48.5000,49.5400,19.8421,1344600,0.0000
2005-06-17,48.7500,50.9500,48.7500,49.8000,19.9462,612000,0.0000
2005-06-10,49.4300,50.6400,47.9500,49.0200,19.6338,495800,0.0000
2005-06-03,50.9900,50.9900,49.0000,49.3500,19.7660,477100,0.0000
2005-05-27,50.9300,51.9100,49.8600,51.1600,20.4909,491400,0.0000
2005-05-20,49.3700,52.6100,49.1700,50.9200,20.3948,540900,0.0000
2005-05-13,51.0700,51.4900,49.0100,49.3300,19.7580,557400,0.0000
2005-05-06,48.3000,51.0600,48.1800,51.0000,20.4269,591600,0.0000
2005-04-29,49.3100,49.8700,47.0000,48.2300,19.3174,691600,0.1500
2005-04-22,48.5000,51.0200,47.6900,49.3500,19.7050,765600,0.0000
2005-04-15,52.8800,53.3700,48.7000,48.9900,19.5613,936600,0.0000
2005-04-08,53.1200,54.8700,52.4000,52.7600,21.0666,560500,0.0000
2005-04-01,50.0500,53.2000,49.6100,53.0000,21.1624,865800,0.0000
2005-03-24,51.3000,51.8100,49.3200,49.8900,19.9206,347700,0.0000
2005-03-18,51.3500,52.8000,50.5300,51.1700,20.4317,555000,0.0000
2005-03-11,52.7000,53.2600,50.8600,51.5500,20.5835,415500,0.0000
2005-03-04,51.7500,53.3500,50.7100,52.8200,21.0906,484300,0.0000
2005-02-25,49.6500,51.9100,48.9000,51.9100,20.7272,419400,0.0000
2005-02-18,49.5000,50.4600,48.9400,49.9000,19.9246,509800,0.0000
2005-02-11,50.6500,50.6500,48.2000,49.6900,19.8408,418900,0.0000
2005-02-04,47.6500,50.2000,47.6500,50.1500,20.0245,427500,0.1500
2005-01-28,48.6000,48.8500,47.2800,47.5500,18.9277,347000,0.0000
2005-01-21,48.8000,49.9600,48.0000,48.6000,19.3457,330700,0.0000
2005-01-14,48.7500,50.4800,47.8000,48.9900,19.5010,557800,0.0000
2005-01-07,52.9500,54.8900,48.7900,49.0000,19.5049,626100,0.0000
2004-12-31,53.7500,54.2200,52.7300,52.7800,21.0096,276700,0.0000
2004-12-23,52.7500,54.8900,52.2400,53.8700,21.4435,328000,0.0000
2004-12-17,52.0000,53.8400,51.8500,52.5000,20.8981,501300,0.0000
2004-12-10,52.5100,52.5100,50.2500,51.8000,20.6195,660500,0.0000
2004-12-03,51.3100,53.9200,51.0000,52.5100,20.9021,514200,0.0000
2004-11-26,49.5000,51.5400,49.5000,51.1100,20.3448,301100,0.0000
2004-11-19,50.0000,50.9400,49.6500,49.7500,19.8035,437400,0.0000
2004-11-12,49.6000,50.0500,48.0200,50.0000,19.9030,448000,0.0000
2004-11-05,47.0000,49.9700,46.6000,49.6300,19.7557,526500,0.0000
2004-10-29,45.8000,48.0100,45.6200,46.9200,18.6770,515000,0.1500
2004-10-22,45.7500,47.7500,45.5100,46.0100,18.2569,623500,0.0000
2004-10-15,45.0100,47.0800,44.5000,46.0000,18.2530,602100,0.0000
2004-10-08,45.2500,46.3100,44.6000,45.0000,17.8562,504300,0.0000
2004-10-01,44.5000,45.6000,43.3300,45.6000,18.0942,525100,0.0000
2004-09-24,45.2000,46.5500,44.6200,44.8300,17.7887,315500,0.0000
2004-09-17,45.6000,46.3000,45.2000,45.5300,18.0665,338500,0.0000
2004-09-10,45.9000,46.8500,45.0300,45.7000,18.1339,384600,0.0000
2004-09-03,45.3000,46.9000,44.3500,45.9000,18.2133,374900,0.0000
2004-08-27,44.6800,45.7000,43.9500,45.4600,18.0387,467900,0.0000
2004-08-20,41.8100,44.4500,41.7700,44.3800,17.6101,408000,0.0000
2004-08-13,40.9600,42.9600,40.9100,41.9100,16.6300,443600,0.0000
2004-08-06,42.1100,43.2600,40.9500,40.9500,16.2491,516500,0.0000
2004-07-30,42.6200,42.7300,41.5500,42.3100,16.7888,839400,0.0000
2004-07-23,42.8000,44.8600,42.3500,42.4200,16.8324,823200,0.1500
2004-07-16,42.2000,43.3800,41.6500,42.3600,16.7494,476100,0.0000
2004-07-09,43.1500,43.3200,41.7500,42.1900,16.6822,337900,0.0000
2004-07-02,42.8100,44.0700,42.4600,43.1100,17.0459,588000,0.0000
2004-06-25,42.9000,44.2000,42.5500,42.7100,16.8878,1288900,0.0000
2004-06-18,41.0000,43.1600,40.9500,43.0600,17.0262,624100,0.0000
2004-06-10,40.7000,41.7000,40.6000,40.8700,16.1602,474400,0.0000
2004-06-04,40.3500,41.2600,40.1000,40.7800,16.1246,364900,0.0000
2004-05-28,39.4000,40.9200,39.4000,40.6500,16.0732,494900,0.0000
2004-05-21,38.2500,39.6500,37.6000,39.2500,15.5197,436900,0.0000
2004-05-14,39.2500,39.3500,37.7000,38.4500,15.2033,398800,0.0000
2004-05-07,39.1000,40.5400,39.0200,39.3200,15.5473,472800,0.0000
2004-04-30,41.0000,41.5500,38.3500,39.3000,15.5394,542200,0.0700
2004-04-23,40.2000,42.5800,40.0000,41.2100,16.2660,475800,0.0000
2004-04-16,39.5200,40.7800,38.5000,40.1400,15.8436,281400,0.0000
2004-04-08,39.2500,40.0000,39.1500,39.4200,15.5594,238600,0.0000
2004-04-02,37.7500,39.1800,37.7400,39.1800,15.4647,371500,0.0000
2004-03-26,38.2500,38.5500,36.7100,37.6200,14.8490,477900,0.0000
2004-03-19,38.4500,38.9000,37.2500,38.3900,15.1529,389000,0.0000
2004-03-12,40.4800,40.6800,38.2500,38.4000,15.1568,328600,0.0000
2004-03-05,40.6500,41.0700,40.0500,40.4500,15.9660,295000,0.0000
2004-02-27,40.2500,41.0200,39.5000,40.4500,15.9660,366300,0.0000
2004-02-20,40.7800,41.2000,40.0000,40.3000,15.9068,264500,0.0000
2004-02-13,40.2500,42.0000,40.2500,40.5300,15.9976,282400,0.0000
2004-02-06,40.1000,40.3000,39.1600,40.0200,15.7963,249900,0.0700
2004-01-30,39.8800,40.8000,39.5000,40.0700,15.7884,299400,0.0000
2004-01-23,39.6000,41.0600,39.5400,39.8200,15.6899,417300,0.0000
2004-01-16,39.9000,40.5500,39.0100,39.7000,15.6426,357600,0.0000
2004-01-09,38.5600,40.2500,38.4600,40.0000,15.7608,661200,0.0000
2004-01-02,39.0000,39.4800,38.3000,38.5600,15.1934,364500,0.0000
2003-12-26,38.1300,38.7700,38.1300,38.7700,15.2761,240900,0.0000
2003-12-19,37.3000,38.2300,36.8300,38.2300,15.0634,694400,0.0000
2003-12-12,36.6500,37.0000,35.9100,36.7900,14.4960,700100,0.0000
2003-12-05,35.0000,37.0500,34.9000,36.8000,14.4999,939000,0.0000
2003-11-28,35.0400,35.0700,34.5000,34.9100,13.7552,330800,0.0000
2003-11-21,36.2500,36.3500,34.7400,35.0300,13.8025,384600,0.0000
2003-11-14,36.4000,36.6000,35.7500,36.2500,14.2832,229700,0.0000
2003-11-07,35.8000,37.1800,35.3800,36.5000,14.3817,542800,0.0000
2003-10-31,35.9500,36.0500,35.6000,35.8000,14.1059,284100,0.0700
2003-10-24,37.3000,37.3000,35.8600,36.0200,14.1650,375300,0.0000
2003-10-17,38.9800,39.8000,36.7500,37.3000,14.6684,523200,0.0000
2003-10-10,38.9000,39.4400,37.9500,38.9500,15.3173,288500,0.0000
2003-10-03,35.9100,39.0200,35.9100,39.0000,15.3369,312100,0.0000
2003-09-26,37.6100,38.1900,35.7100,35.7100,14.0431,494700,0.0000
2003-09-19,38.9500,39.0000,37.2400,37.6000,14.7864,304000,0.0000
2003-09-12,38.6000,39.4500,37.6000,38.9000,15.2976,238300,0.0000
2003-09-05,39.0000,39.7000,37.9000,38.4300,15.1128,202400,0.0000
2003-08-29,37.9500,39.2000,37.2500,39.1600,15.3998,193000,0.0000
2003-08-22,38.1000,39.1000,37.8000,37.9000,14.9043,326800,0.0000
2003-08-15,36.6500,38.0000,36.0000,38.0000,14.9437,202100,0.0000
2003-08-08,36.7000,37.1400,35.6000,36.7500,14.4521,226800,0.0000
2003-08-01,37.2500,37.9500,36.6000,37.1500,14.6094,370200,0.0000
2003-07-25,36.7000,37.7500,36.5800,37.2500,14.6487,372500,0.0700
2003-07-18,36.6000,37.9000,36.1500,36.7000,14.4054,361900,0.0000
2003-07-11,36.4500,37.3000,36.3000,36.4500,14.3072,259400,0.0000
2003-07-03,35.1000,36.5900,35.1000,36.4000,14.2876,229000,0.0000
2003-06-27,35.1000,35.5000,34.0000,35.1000,13.7773,280700,0.0000
2003-06-20,35.3500,36.5000,35.0900,35.1000,13.7773,347000,0.0000
2003-06-13,35.8200,36.1000,35.2000,35.3500,13.8755,316100,0.0000
2003-06-06,35.1100,36.0200,35.1000,35.8300,14.0639,217400,0.0000
2003-05-30,34.5500,35.2300,34.4300,35.0000,13.7381,172000,0.0000
2003-05-23,34.7600,34.7700,34.0800,34.4400,13.5183,349300,0.0000
2003-05-16,35.1500,35.1900,34.7000,34.8000,13.6596,333600,0.0000
2003-05-09,34.1000,35.3300,34.1000,35.3300,13.8676,446200,0.0000
2003-05-02,32.2000,34.7100,32.2000,34.1300,13.3966,584300,0.0600
2003-04-25,31.5500,33.8300,31.5500,32.4100,12.6989,472200,0.0000
2003-04-17,31.0000,32.1200,30.9200,31.3000,12.2639,302900,0.0000
2003-04-11,32.0000,32.9700,30.6500,30.9000,12.1072,260900,0.0000
2003-04-04,32.3500,33.0000,31.0100,31.8500,12.4794,388600,0.0000
2003-03-28,32.9500,32.9500,31.6600,32.4000,12.6949,275100,0.0000
2003-03-21,30.4000,33.0200,30.0000,33.0200,12.9379,388700,0.0000
2003-03-14,30.3800,30.5000,29.5200,30.3500,11.8917,606200,0.0000
2003-03-07,30.2700,30.6500,29.4500,30.3300,11.8839,407000,0.0000
2003-02-28,30.0700,30.3500,29.1500,30.3000,11.8721,384500,0.0000
2003-02-21,29.3500,30.2300,29.0200,30.0700,11.7820,538400,0.0000
2003-02-14,27.3300,29.8700,26.5100,29.3500,11.4999,392200,0.0000
2003-02-07,28.6200,28.7500,27.2400,27.2500,10.6771,244700,0.0600
2003-01-31,28.9000,29.1400,27.7600,28.6800,11.2135,224800,0.0000
2003-01-24,30.2500,30.2900,28.9300,29.1300,11.3894,152900,0.0000
2003-01-17,30.6500,31.0200,29.8000,30.2500,11.8274,235700,0.0000
2003-01-10,31.2500,31.4900,30.2500,30.6000,11.9642,244200,0.0000
2003-01-03,30.8300,31.3300,30.4500,31.0000,12.1206,256500,0.0000
2002-12-27,32.5000,33.0100,30.0000,30.7500,12.0228,558700,0.0000
2002-12-20,30.3500,33.0000,30.1000,33.0000,12.9026,886000,0.0000
2002-12-13,31.0000,31.3000,29.7700,30.3500,11.8664,241500,0.0000
2002-12-06,30.0800,31.5000,30.0800,31.1900,12.1949,279800,0.0000
2002-11-29,28.7500,30.3500,28.6000,29.8800,11.6827,225000,0.0000
2002-11-22,28.8800,29.2800,28.3100,28.9400,11.3152,266900,0.0000
2002-11-15,28.1800,29.2000,28.0000,28.7000,11.2213,239900,0.0000
2002-11-08,28.0000,29.0000,28.0000,28.2000,11.0258,253200,0.0000
2002-11-01,27.8900,28.0900,27.3400,28.0500,10.9672,261400,0.0600
2002-10-25,26.0000,28.1000,25.8900,27.9500,10.9046,478700,0.0000
2002-10-18,26.3400,26.6400,25.4000,26.1500,10.2024,491100,0.0000
2002-10-11,25.7500,26.7400,24.8400,26.2700,10.2492,293000,0.0000
2002-10-04,26.9500,27.5700,25.8000,25.8800,10.0970,568900,0.0000
2002-09-27,29.0200,29.0200,26.8500,26.9900,10.5301,471300,0.0000
2002-09-20,30.3800,30.5000,28.9000,29.1800,11.3845,402100,0.0000
2002-09-13,30.7800,31.6400,30.0500,30.4000,11.8605,185600,0.0000
2002-09-06,32.0000,32.1500,30.2500,30.6800,11.9697,262100,0.0000
2002-08-30,31.3400,32.3000,30.8000,32.1000,12.5237,284200,0.0000
2002-08-23,31.1500,32.0000,30.8000,31.4400,12.2662,261700,0.0000
2002-08-16,30.7000,31.2700,29.2500,31.1500,12.1531,142300,0.0000
2002-08-09,29.3900,30.9300,28.6000,30.7500,11.9970,244600,0.0000
2002-08-02,28.4500,30.9700,28.4500,29.4000,11.4703,483400,0.0000
2002-07-26,27.8800,28.4200,26.6000,28.2000,11.0022,669900,0.0600
2002-07-19,29.2500,29.2600,26.6000,27.9000,10.8620,446900,0.0000
2002-07-12,31.8000,31.8000,29.0000,29.3500,11.4265,327800,0.0000
2002-07-05,31.1200,32.6000,30.4100,31.5500,12.2830,378800,0.0000
2002-06-28,34.7000,35.2000,30.7500,30.7500,11.9716,1009100,0.0000
2002-06-21,34.1800,35.5000,34.1800,34.8000,13.5483,286500,0.0000
2002-06-14,36.6500,36.8300,32.9700,33.9300,13.2096,387900,0.0000
2002-06-07,37.3800,37.4000,35.4900,36.7000,14.2880,413400,0.0000
2002-05-31,36.0000,37.8500,35.3200,37.3800,14.5528,349100,0.0000
2002-05-24,36.7500,37.0100,35.4900,36.1100,14.0583,384800,0.0000
2002-05-17,36.8500,37.8000,36.4400,37.1200,14.4515,368100,0.0000
2002-05-10,37.3900,37.7000,36.4900,36.6500,14.2686,280900,0.0000
2002-05-03,36.3400,38.7400,36.0500,37.5400,14.6151,382000,0.0600
2002-04-26,35.8700,36.9000,35.1200,36.3900,14.1443,466700,0.0000
2002-04-19,37.4000,38.0000,35.8000,35.8700,13.9422,325700,0.0000
2002-04-12,35.6000,37.5500,35.2800,37.5200,14.5836,407200,0.0000
2002-04-05,35.0500,35.8500,34.5600,35.6000,13.8373,408000,0.0000
2002-03-28,33.3700,35.1900,33.3000,35.0500,13.6235,370800,0.0000
2002-03-22,34.0000,34.5500,33.2000,33.3600,12.9666,539800,0.0000
2002-03-15,34.3000,34.3000,33.1200,33.9000,13.1765,443600,0.0000
2002-03-08,34.6500,35.0000,33.9000,34.4800,13.4019,794600,0.0000
2002-03-01,33.7000,35.1200,33.4000,34.5800,13.4408,457300,0.0000
2002-02-22,33.5500,34.2500,33.2500,33.8300,13.1493,497500,0.0000
2002-02-15,33.0000,34.1400,32.4000,33.7900,13.1337,599900,0.0000
2002-02-08,31.9500,33.1500,31.3400,33.1500,12.8850,357800,0.0600
2002-02-01,30.7000,32.6300,30.2500,31.9500,12.3951,606000,0.0000
2002-01-25,29.9500,30.8000,29.8500,30.5300,11.8442,975500,0.0000
2002-01-18,30.5000,30.5000,29.7500,29.9100,11.6037,1155700,0.0000
2002-01-11,34.3000,35.2800,29.8900,30.3900,11.7899,1542900,0.0000
2002-01-04,34.0000,35.4200,33.7000,34.7300,13.4736,423400,0.0000
2001-12-28,34.1800,34.9000,33.9300,33.9300,13.1632,135900,0.0000
2001-12-21,32.6000,34.4000,32.5800,34.3000,13.3068,441300,0.0000
2001-12-14,33.8500,34.2500,32.4400,32.5000,12.6085,583900,0.0000
2001-12-07,33.1000,34.3300,32.4500,34.0000,13.1904,580300,0.0000
2001-11-30,32.8200,33.1500,31.7000,32.8000,12.7249,476500,0.0000
2001-11-23,32.2000,33.0000,31.9000,32.9000,12.7636,579300,0.0000
2001-11-16,30.6000,33.1000,30.4500,32.3700,12.5580,314500,0.0000
2001-11-09,30.7800,32.3000,30.6800,30.9800,12.0188,337900,0.0000
2001-11-02,30.0200,31.2700,29.9200,30.7800,11.9412,275900,0.0600
2001-10-26,29.6000,30.4900,29.3300,29.9800,11.6076,393100,0.0000
2001-10-19,33.9000,34.7400,27.1000,29.0000,11.2281,1412300,0.0000
2001-10-12,32.7600,34.4500,31.5200,34.0200,13.1718,248600,0.0000
2001-10-05,31.8000,33.0000,30.5200,32.6500,12.6413,381700,0.0000
2001-09-28,30.2600,32.5000,30.2000,31.8000,12.3122,459600,0.0000
2001-09-21,34.7500,34.7500,28.5000,30.0600,11.6385,411600,0.0000
2001-09-10,35.2200,35.2600,34.6000,35.0000,13.5512,43100,0.0000
2001-09-07,35.7900,36.7000,34.2000,35.4000,13.7061,417700,0.0000
2001-08-31,35.8400,37.0000,35.2400,35.7900,13.8571,375300,0.0000
2001-08-24,35.1700,36.2500,34.4000,35.7400,13.8377,402000,0.0000
2001-08-17,33.5300,35.3500,33.2500,35.1700,13.6170,311800,0.0000
2001-08-10,33.3100,33.6200,32.8100,33.4500,12.9511,256300,0.0000
2001-08-03,33.1400,33.5500,32.2000,33.5000,12.9704,245500,0.0000
2001-07-27,33.5300,34.1000,32.2500,33.1400,12.8310,446900,0.0600
2001-07-20,31.4600,33.5900,31.4600,32.9300,12.7267,227700,0.0000
2001-07-13,31.4000,32.1900,30.5000,31.7100,12.2552,430200,0.0000
2001-07-06,32.6500,32.7900,31.2500,31.3500,12.1161,226500,0.0000
2001-06-29,33.5200,33.8100,31.8200,32.4300,12.5335,491400,0.0000
2001-06-22,34.5000,36.0000,33.0800,33.4000,12.9083,575000,0.0000
2001-06-15,34.8500,35.1500,33.4500,34.1000,13.1789,301500,0.0000
2001-06-08,33.1000,35.4000,32.9000,34.8500,13.4687,255400,0.0000
2001-06-01,34.4000,34.4000,32.7500,33.2600,12.8542,291300,0.0000
2001-05-25,35.4500,36.9900,33.6000,34.4100,13.2987,398100,0.0000
2001-05-18,34.6800,37.2100,34.1500,35.4500,13.7006,664800,0.0000
2001-05-11,33.1900,35.8800,32.5000,34.6700,13.3992,568800,0.0000
2001-05-04,31.6000,33.5000,31.0000,33.2000,12.8310,412600,0.0500
2001-04-27,31.6500,32.8000,31.0300,31.9000,12.3091,815000,0.0000
2001-04-20,30.4000,32.5100,30.3500,31.9000,12.3091,401600,0.0000
2001-04-12,30.6500,31.4000,30.1100,30.6000,11.8075,196400,0.0000
2001-04-06,30.4700,31.0000,29.2500,30.5500,11.7882,190700,0.0000
2001-03-30,29.3300,30.9000,28.8800,30.4700,11.7573,358900,0.0000
2001-03-23,30.1500,31.0000,28.5100,29.5800,11.4139,786500,0.0000
2001-03-16,30.6500,31.6000,29.2000,29.2000,11.2673,864200,0.0000
2001-03-09,29.1200,31.3500,29.1200,30.8000,11.8847,418200,0.0000
2001-03-02,29.3700,30.2300,28.4500,29.1200,11.2364,481600,0.0000
2001-02-23,28.6100,30.0000,28.5100,29.3800,11.3368,321500,0.0000
2001-02-16,28.6700,29.5600,28.4800,28.6000,11.0358,370300,0.0000
2001-02-09,28.6500,29.6000,28.2200,28.5000,10.9972,353700,0.0500
2001-02-02,28.8000,30.3300,28.4500,28.7100,11.0587,633100,0.0000
2001-01-26,28.2500,29.6900,28.0000,28.5600,11.0009,332400,0.0000
2001-01-19,29.3800,29.6300,28.0600,28.1900,10.8584,409800,0.0000
2001-01-12,27.6900,29.5600,26.4400,29.5000,11.3630,598400,0.0000
2001-01-05,29.3800,29.3800,27.2500,27.6900,10.6658,375500,0.0000
2000-12-29,28.3800,30.1300,27.8800,29.3800,11.3168,289100,0.0000
2000-12-22,27.0600,28.3800,27.0000,28.3800,10.9316,539800,0.0000
2000-12-15,25.2500,27.5600,25.1300,27.0600,10.4232,493400,0.0000
2000-12-08,25.1300,25.8800,25.0000,25.4400,9.7992,429500,0.0000
2000-12-01,24.8800,25.5600,24.2500,25.1300,9.6797,302700,0.0000
2000-11-24,24.5000,25.0600,23.1300,24.7500,9.5334,249400,0.0000
2000-11-17,22.2500,25.0000,22.2500,24.5000,9.4371,739000,0.0000
2000-11-10,20.8100,23.1300,20.6900,22.2500,8.5704,1537600,0.0000
2000-11-03,20.2500,20.9400,19.8800,20.8800,8.0427,826700,0.0500
2000-10-27,19.8800,20.4400,19.5000,20.3100,7.8039,651900,0.0000
2000-10-20,23.2500,23.2500,19.3800,19.8800,7.6387,997900,0.0000
2000-10-13,22.0600,23.2500,21.4400,23.2500,8.9335,490600,0.0000
2000-10-06,24.1900,24.5600,22.3100,22.3100,8.5723,448300,0.0000
2000-09-29,22.7500,24.1900,22.5000,23.9400,9.1987,451000,0.0000
2000-09-22,24.3800,24.3800,21.8800,23.0000,8.8375,526600,0.0000
2000-09-15,24.5600,25.3800,24.1300,24.6300,9.4638,415800,0.0000
2000-09-08,23.8100,24.6300,23.0600,24.3100,9.3408,412200,0.0000
2000-09-01,23.8800,23.9400,22.8800,23.5600,9.0526,546000,0.0000
2000-08-25,24.3100,24.5600,22.2500,23.3100,8.9566,582300,0.0000
2000-08-18,25.7500,25.8800,23.9400,24.1900,9.2947,325300,0.0000
2000-08-11,24.8100,26.1900,24.6900,25.6300,9.8480,277100,0.0000
2000-08-04,24.3100,25.1900,24.3100,24.8100,9.5329,364100,0.0000
2000-07-28,24.3100,25.3800,24.2500,24.3100,9.3408,896700,0.0500
2000-07-21,28.3800,29.0000,23.3800,24.3100,9.3217,686300,0.0000
2000-07-14,28.8800,30.0000,28.0000,28.6300,10.9782,313400,0.0000
2000-07-07,27.2500,29.6900,27.2500,28.8800,11.0740,298500,0.0000
2000-06-30,27.5000,29.3100,27.0000,27.0000,10.3531,624300,0.0000
2000-06-23,28.2500,28.9400,27.7500,28.1300,10.7864,457500,0.0000
2000-06-16,27.0600,28.2500,26.9400,28.1900,10.8094,507100,0.0000
2000-06-09,27.5000,27.5000,26.5000,27.2500,10.4490,200300,0.0000
2000-06-02,26.7500,27.5000,26.5000,27.5000,10.5449,290800,0.0000
2000-05-26,27.4400,27.5000,26.5000,26.8800,10.3071,326200,0.0000
2000-05-19,27.1900,27.5000,26.5600,27.4400,10.5218,300100,0.0000
2000-05-12,27.2500,27.5000,25.7500,27.3100,10.4720,319200,0.0000
2000-05-05,28.0000,28.0000,26.4400,27.2500,10.4490,287400,0.0500
2000-04-28,25.8800,28.5000,25.7500,28.5000,10.9088,506100,0.0000
2000-04-20,24.1300,25.8800,23.3800,25.8800,9.9060,226400,0.0000
2000-04-14,25.3800,26.4400,23.8800,24.1900,9.2591,272900,0.0000
2000-04-07,26.8800,26.8800,24.2500,25.5000,9.7605,479300,0.0000
2000-03-31,25.2500,27.6300,24.2500,26.6900,10.2160,393900,0.0000
2000-03-24,24.5000,26.9400,24.1300,25.6900,9.8333,403300,0.0000
2000-03-17,22.5000,25.0000,21.8100,24.6300,9.4275,965700,0.0000
2000-03-10,24.7500,24.7500,20.1300,22.6300,8.6620,612800,0.0000
2000-03-03,23.2500,25.4400,22.1300,24.8100,9.4964,809200,0.0000
2000-02-25,23.5000,24.3800,22.7500,23.3100,8.9223,783900,0.0000
2000-02-18,22.6300,24.1900,21.5000,23.5600,9.0180,669900,0.0000
2000-02-11,22.8100,24.0000,22.0600,22.2500,8.5165,297900,0.0500
2000-02-04,22.5000,26.0000,22.0000,23.1300,8.8337,662900,0.0000
2000-01-28,25.3800,26.1300,22.3800,22.3800,8.5473,610000,0.0000
2000-01-21,26.2500,26.8400,25.1300,25.5000,9.7388,207800,0.0000
2000-01-14,25.8100,27.3800,25.5000,26.7500,10.2162,413800,0.0000
2000-01-07,25.1200,28.6300,23.3800,26.0600,9.9527,645900,0.0000
1999-12-31,25.9400,26.2500,24.6900,25.1300,9.5975,386000,0.0000
1999-12-23,27.7500,27.8100,25.3800,25.9400,9.9069,273900,0.0000
1999-12-17,26.2500,28.2500,25.7500,28.0000,10.6936,618700,0.0000
1999-12-10,27.5600,28.1300,25.2500,26.3100,10.0482,371000,0.0000
1999-12-03,27.0000,28.2500,26.1900,27.6900,10.5752,490200,0.0000
1999-11-26,27.5000,28.1300,26.0600,26.8800,10.2659,353900,0.0000
1999-11-19,26.9400,29.2500,26.7500,27.9400,10.6707,344500,0.0000
1999-11-12,27.9400,27.9400,26.5000,27.0000,10.3117,169600,0.0000
1999-11-05,26.7500,28.6300,26.7500,27.8800,10.6478,369600,0.0000
1999-10-29,25.1900,26.8800,24.0000,26.8800,10.2659,501800,0.0500
1999-10-22,26.1300,27.1900,24.0600,25.2500,9.6254,431200,0.0000
1999-10-15,25.7500,26.3800,25.6300,26.1300,9.9609,227100,0.0000
1999-10-08,25.5000,26.0000,23.8800,25.7500,9.8160,306000,0.0000
1999-10-01,22.8800,26.7500,22.8800,25.5600,9.7436,416200,0.0000
1999-09-24,25.3100,25.6900,22.5000,22.7500,8.6724,642200,0.0000
1999-09-17,26.7500,26.7500,23.4400,25.2500,9.6254,436600,0.0000
1999-09-10,26.3800,27.1300,26.3800,26.7500,10.1973,174800,0.0000
1999-09-03,25.1900,26.3800,25.0000,26.3800,10.0562,371100,0.0000
1999-08-27,26.3100,26.3100,24.8100,25.1300,9.5797,434400,0.0000
1999-08-20,27.6900,28.0000,25.9400,26.0600,9.9342,569600,0.0000
1999-08-13,28.2500,28.6300,26.8100,27.6300,10.5327,300300,0.0000
1999-08-06,28.8100,29.0000,27.2500,28.1300,10.7233,258300,0.0000
1999-07-30,29.3800,29.5600,28.0000,28.9400,11.0321,507600,0.0500
1999-07-23,29.5600,30.0000,26.6300,29.3800,11.1805,419200,0.0000
1999-07-16,28.5000,30.0000,28.3800,29.6300,11.2756,222400,0.0000
1999-07-09,30.1300,30.1300,27.0000,28.1300,10.7048,304200,0.0000
1999-07-02,28.0600,30.8800,28.0600,30.5600,11.6296,548200,0.0000
1999-06-25,30.0000,30.0000,27.8800,28.1900,10.7277,371100,0.0000
1999-06-18,29.8800,30.5000,29.0000,29.9400,11.3936,290500,0.0000
1999-06-11,27.6900,30.3800,27.3800,29.6300,11.2756,176000,0.0000
1999-06-04,27.6300,29.6900,27.2500,27.4400,10.4422,362600,0.0000
1999-05-28,29.4400,29.4400,27.4400,27.5000,10.4651,450000,0.0000
1999-05-21,29.2500,31.5000,28.8800,29.3800,11.1805,418600,0.0000
1999-05-14,26.0600,29.6300,26.0600,29.5000,11.2262,357800,0.0000
1999-05-07,27.3800,28.7500,25.5000,25.6300,9.7535,303300,0.0400
1999-04-30,27.1300,29.0000,25.6300,28.0000,10.6396,254200,0.0000
1999-04-23,28.5000,30.0000,25.5600,27.0000,10.2596,354400,0.0000
1999-04-16,25.3800,29.3800,24.7500,28.6900,10.9018,320800,0.0000
1999-04-09,25.7500,26.2500,23.8100,25.6300,9.7391,553700,0.0000
1999-04-01,25.9400,27.0000,25.0000,25.6300,9.7391,222600,0.0000
1999-03-26,27.5000,27.5000,24.8800,25.8100,9.8075,244300,0.0000
1999-03-19,28.8800,29.2500,27.3800,27.5000,10.4496,305100,0.0000
1999-03-12,27.3800,29.6300,26.7500,29.1300,11.0690,331900,0.0000
1999-03-05,27.6300,28.2500,26.3800,27.2500,10.3546,217300,0.0000
1999-02-26,26.3800,28.8800,26.1300,27.3800,10.4040,298500,0.0000
1999-02-19,24.3100,26.1300,23.1300,25.6300,9.7391,432000,0.0000
1999-02-12,27.0000,27.6300,24.0000,24.0600,9.1425,298400,0.0000
1999-02-05,27.3100,28.9400,26.4400,27.2500,10.3546,308600,0.0400
1999-01-29,27.1300,27.7500,27.0000,27.3100,10.3629,385600,0.0000
1999-01-22,26.6300,27.6900,25.5600,27.2500,10.3401,204200,0.0000
1999-01-15,26.7500,26.8800,24.0000,26.8800,10.1997,481600,0.0000
1999-01-08,27.6300,28.7500,26.0600,26.7500,10.1504,339500,0.0000
1998-12-31,28.0000,28.3800,27.0600,28.0600,10.6474,325900,0.0000
1998-12-24,28.3800,30.1300,27.6900,27.9400,10.6019,314800,0.0000
1998-12-18,28.0000,28.3800,25.0000,28.1300,10.6740,417800,0.0000
1998-12-11,28.8100,30.1300,27.5000,27.8800,10.5791,353100,0.0000
1998-12-04,28.1900,28.9400,27.6300,28.8800,10.9586,507900,0.0000
1998-11-27,27.5000,29.1300,27.5000,28.2500,10.7195,259000,0.0000
1998-11-20,27.5000,27.5000,26.7500,27.5000,10.4350,416800,0.0000
1998-11-13,27.9400,28.0000,27.2500,27.4400,10.4122,356000,0.0000
1998-11-06,27.0000,29.0000,27.0000,27.8800,10.5791,601600,0.0000
1998-10-30,29.7500,29.7500,25.3800,26.7500,10.1504,516900,0.0400
1998-10-23,23.5000,30.0000,23.5000,30.0000,11.3666,420100,0.0000
1998-10-16,20.8800,23.5000,20.8800,23.2500,8.8091,609900,0.0000
1998-10-09,22.0000,22.5000,19.6900,20.6300,7.8164,579800,0.0000
1998-10-02,24.1300,24.3800,20.5000,22.0000,8.3355,1053400,0.0000
1998-09-25,27.6300,28.0600,22.1300,24.0000,9.0933,1023300,0.0000
1998-09-18,26.6900,28.0000,25.6300,27.8800,10.5634,361800,0.0000
1998-09-11,28.6900,29.3100,26.3800,26.8100,10.1579,154300,0.0000
1998-09-04,28.4400,29.4400,26.3100,28.5600,10.8210,367800,0.0000
1998-08-28,60.1900,61.5000,27.5000,27.9400,10.5861,196150,0.0000
1998-08-21,60.1300,62.8800,59.5000,60.0600,11.3780,244100,0.0000
1998-08-14,59.8800,60.1300,57.1900,60.1300,11.3912,155100,0.0000
1998-08-07,61.6300,61.6300,58.8100,59.8100,11.3306,214500,0.0000
1998-07-31,65.2500,65.3100,60.0000,61.5600,11.6621,508900,0.0800
1998-07-24,65.2500,66.0000,65.2500,65.3800,12.3697,485400,0.0000
1998-07-17,64.5600,66.8800,64.5600,65.3100,12.3565,1024200,0.0000
1998-07-10,62.7500,64.5000,62.7500,64.3100,12.1673,119100,0.0000
1998-07-02,60.1900,63.8800,60.1900,62.6900,11.8608,131600,0.0000
1998-06-26,58.8100,61.0000,58.6900,60.1900,11.3878,120800,0.0000
1998-06-19,60.2500,60.4400,58.5000,58.8100,11.1267,278100,0.0000
1998-06-12,63.5600,63.7500,59.2500,60.5000,11.4464,151600,0.0000
1998-06-05,64.8100,65.8100,62.3800,63.4400,12.0027,90100,0.0000
1998-05-29,63.5600,65.8800,63.5000,64.8100,12.2619,215000,0.0000
1998-05-22,65.0000,65.7500,63.3100,63.3100,11.9781,236500,0.0000
1998-05-15,62.7500,65.5000,62.7500,65.0000,12.2978,244900,0.0000
1998-05-08,61.6300,62.8100,61.6300,62.6900,11.8608,126300,0.0800
1998-05-01,58.2500,63.2500,56.7500,62.0000,11.7151,234500,0.0000
1998-04-24,59.0000,60.5000,56.0000,58.3100,11.0179,259300,0.0000
1998-04-17,59.8800,60.6300,58.3100,58.7500,11.1010,176900,0.0000
1998-04-09,61.0600,61.1900,59.0000,59.9400,11.3258,202800,0.0000
1998-04-03,60.0600,62.0000,59.8100,61.0600,11.5375,291600,0.0000
1998-03-27,62.8800,63.6300,60.0000,60.0600,11.3485,120000,0.0000
1998-03-20,60.9400,63.1300,60.7500,63.0000,11.9040,96800,0.0000
1998-03-13,59.1900,61.7500,59.0600,61.0000,11.5261,190900,0.0000
1998-03-06,57.6900,60.6300,57.6900,59.3100,11.2068,197900,0.0000
1998-02-27,58.7500,58.7500,57.0600,57.6900,10.9007,178700,0.0000
1998-02-20,55.1300,57.8800,55.1300,57.8800,10.9366,137800,0.0000
1998-02-13,54.5600,56.3100,53.3800,54.9400,10.3811,116300,0.0000
1998-02-06,51.1300,55.7500,51.0000,54.8100,10.3565,316300,0.0800
1998-01-30,50.0000,52.7500,49.2500,51.0000,9.6221,306700,0.0000
1998-01-23,49.2500,50.2500,47.9400,49.8800,9.4108,202100,0.0000
1998-01-16,48.9400,49.8800,48.6900,49.1900,9.2806,280100,0.0000
1998-01-09,55.0000,55.0000,49.1300,49.1900,9.2806,241800,0.0000
